-1.493100000000000000e+04
-1.519400000000000000e+04
-1.484900000000000000e+04
-1.499700000000000000e+04
-1.416000000000000000e+04
-1.360400000000000000e+04
-1.336700000000000000e+04
-1.282700000000000000e+04
-1.175800000000000000e+04
-1.089900000000000000e+04
-1.054900000000000000e+04
-9.878000000000000000e+03
-9.797000000000000000e+03
-1.013200000000000000e+04
-1.052600000000000000e+04
-1.200400000000000000e+04
-1.289900000000000000e+04
-1.382400000000000000e+04
-1.522100000000000000e+04
-1.558600000000000000e+04
-1.581700000000000000e+04
-1.683700000000000000e+04
-1.752100000000000000e+04
-2.291700000000000000e+04
-2.364700000000000000e+04
-2.283200000000000000e+04
-2.222400000000000000e+04
-2.094500000000000000e+04
-2.014400000000000000e+04
-1.936900000000000000e+04
-1.883600000000000000e+04
-1.836600000000000000e+04
-1.852200000000000000e+04
-1.818100000000000000e+04
-1.825300000000000000e+04
-1.893600000000000000e+04
-1.781400000000000000e+04
-1.633400000000000000e+04
-2.010400000000000000e+04
-2.216400000000000000e+04
-2.184400000000000000e+04
-2.134200000000000000e+04
-2.131900000000000000e+04
-2.128400000000000000e+04
-1.768800000000000000e+04
-1.305600000000000000e+04
-1.441200000000000000e+04
-1.873700000000000000e+04
-1.833000000000000000e+04
-1.716900000000000000e+04
-1.573500000000000000e+04
-1.037400000000000000e+04
-8.526000000000000000e+03
-8.709000000000000000e+03
-8.945000000000000000e+03
-9.969000000000000000e+03
-1.095000000000000000e+04
-1.241700000000000000e+04
-1.289400000000000000e+04
-1.353700000000000000e+04
-1.416300000000000000e+04
-1.390400000000000000e+04
-1.344800000000000000e+04
-1.309500000000000000e+04
-1.324800000000000000e+04
-1.272600000000000000e+04
-1.215300000000000000e+04
-1.158700000000000000e+04
-1.118100000000000000e+04
-1.038900000000000000e+04
-9.977000000000000000e+03
-9.247000000000000000e+03
-9.011000000000000000e+03
-8.916000000000000000e+03
-9.514000000000000000e+03
-1.042200000000000000e+04
-1.140200000000000000e+04
-1.215400000000000000e+04
-1.294200000000000000e+04
-1.391600000000000000e+04
-1.412200000000000000e+04
-1.425000000000000000e+04
-1.388600000000000000e+04
-1.424200000000000000e+04
-1.316700000000000000e+04
-1.247900000000000000e+04
-1.233900000000000000e+04
-1.203000000000000000e+04
-1.161200000000000000e+04
-1.002200000000000000e+04
-9.201000000000000000e+03
-9.057000000000000000e+03
-9.601000000000000000e+03
-9.908000000000000000e+03
-9.934000000000000000e+03
-1.077400000000000000e+04
-1.187200000000000000e+04
-1.288200000000000000e+04
-1.382300000000000000e+04
-1.440400000000000000e+04
-1.441600000000000000e+04
-1.539600000000000000e+04
-1.606900000000000000e+04
-1.556700000000000000e+04
-1.509700000000000000e+04
-1.486900000000000000e+04
-1.453000000000000000e+04
-1.291600000000000000e+04
-1.294100000000000000e+04
-1.284600000000000000e+04
-1.069700000000000000e+04
-1.055100000000000000e+04
-1.038200000000000000e+04
-9.764000000000000000e+03
-1.009600000000000000e+04
-1.029200000000000000e+04
-1.127900000000000000e+04
-1.251500000000000000e+04
-1.304000000000000000e+04
-1.432400000000000000e+04
-1.459900000000000000e+04
-1.414900000000000000e+04
-1.519400000000000000e+04
-1.906700000000000000e+04
-2.274800000000000000e+04
-2.206800000000000000e+04
-2.122100000000000000e+04
-2.051000000000000000e+04
-1.997700000000000000e+04
-1.896300000000000000e+04
-1.626600000000000000e+04
-1.614600000000000000e+04
-1.692200000000000000e+04
-1.724200000000000000e+04
-1.745100000000000000e+04
-1.756400000000000000e+04
-1.918100000000000000e+04
-1.850400000000000000e+04
-1.725100000000000000e+04
-2.103400000000000000e+04
-2.197600000000000000e+04
-2.238900000000000000e+04
-2.174700000000000000e+04
-1.684100000000000000e+04
-1.399900000000000000e+04
-1.785600000000000000e+04
-2.224700000000000000e+04
-2.091700000000000000e+04
-1.930000000000000000e+04
-1.791200000000000000e+04
-1.679200000000000000e+04
-1.684700000000000000e+04
-1.671300000000000000e+04
-1.296600000000000000e+04
-9.476000000000000000e+03
-9.234000000000000000e+03
-1.019100000000000000e+04
-1.107800000000000000e+04
-1.169500000000000000e+04
-1.196600000000000000e+04
-1.246900000000000000e+04
-1.321600000000000000e+04
-1.316700000000000000e+04
-1.279600000000000000e+04
-1.262900000000000000e+04
-1.212100000000000000e+04
-1.164400000000000000e+04
-1.168200000000000000e+04
-1.107400000000000000e+04
-9.928000000000000000e+03
-9.364000000000000000e+03
-8.928000000000000000e+03
-8.549000000000000000e+03
-8.920000000000000000e+03
-9.561000000000000000e+03
-1.026600000000000000e+04
-1.157600000000000000e+04
-1.228700000000000000e+04
-1.277400000000000000e+04
-1.350700000000000000e+04
-1.415200000000000000e+04
-1.425900000000000000e+04
-1.472400000000000000e+04
-1.471300000000000000e+04
-1.473300000000000000e+04
-1.459000000000000000e+04
-1.369900000000000000e+04
-1.279200000000000000e+04
-1.171100000000000000e+04
-1.091400000000000000e+04
-1.087200000000000000e+04
-1.004700000000000000e+04
-9.769000000000000000e+03
-1.001900000000000000e+04
-1.070600000000000000e+04
-1.127200000000000000e+04
-1.201500000000000000e+04
-1.276400000000000000e+04
-1.381300000000000000e+04
-1.447600000000000000e+04
-1.449200000000000000e+04
-1.488100000000000000e+04
-1.467000000000000000e+04
-1.450900000000000000e+04
-1.495100000000000000e+04
-1.440000000000000000e+04
-1.335800000000000000e+04
-1.268100000000000000e+04
-1.194600000000000000e+04
-1.103200000000000000e+04
-1.023300000000000000e+04
-9.663000000000000000e+03
-9.971000000000000000e+03
-9.943000000000000000e+03
-1.000900000000000000e+04
-1.129200000000000000e+04
-1.253200000000000000e+04
-1.283700000000000000e+04
-1.342100000000000000e+04
-1.411600000000000000e+04
-1.375600000000000000e+04
-1.432200000000000000e+04
-1.504700000000000000e+04
-1.490700000000000000e+04
-1.437300000000000000e+04
-1.404900000000000000e+04
-1.320300000000000000e+04
-1.282200000000000000e+04
-1.172800000000000000e+04
-1.170700000000000000e+04
-1.103100000000000000e+04
-1.035100000000000000e+04
-1.033000000000000000e+04
-1.025100000000000000e+04
-1.034300000000000000e+04
-1.112200000000000000e+04
-1.169100000000000000e+04
-1.303100000000000000e+04
-1.361200000000000000e+04
-1.377200000000000000e+04
-1.402200000000000000e+04
-1.448000000000000000e+04
-1.437900000000000000e+04
-1.437700000000000000e+04
-1.423200000000000000e+04
-1.340400000000000000e+04
-1.314000000000000000e+04
-1.292500000000000000e+04
-1.397200000000000000e+04
-1.584200000000000000e+04
-1.867800000000000000e+04
-1.846700000000000000e+04
-1.851700000000000000e+04
-1.841200000000000000e+04
-1.863100000000000000e+04
-1.900100000000000000e+04
-1.583100000000000000e+04
-1.216000000000000000e+04
-1.297400000000000000e+04
-1.345900000000000000e+04
-1.360000000000000000e+04
-1.388600000000000000e+04
-1.416100000000000000e+04
-1.458100000000000000e+04
-1.363200000000000000e+04
-1.353500000000000000e+04
-1.303000000000000000e+04
-1.174400000000000000e+04
-1.103800000000000000e+04
-1.079900000000000000e+04
-9.876000000000000000e+03
-9.049000000000000000e+03
-9.276000000000000000e+03
-9.641000000000000000e+03
-9.330000000000000000e+03
-1.042700000000000000e+04
-1.101200000000000000e+04
-1.165700000000000000e+04
-1.265700000000000000e+04
-1.350900000000000000e+04
-1.355200000000000000e+04
-1.363700000000000000e+04
-1.356400000000000000e+04
-1.370100000000000000e+04
-1.322500000000000000e+04
-1.239600000000000000e+04
-1.212700000000000000e+04
-1.160800000000000000e+04
-1.083300000000000000e+04
-9.658000000000000000e+03
-8.885000000000000000e+03
-8.464000000000000000e+03
-8.306000000000000000e+03
-8.257000000000000000e+03
-8.883000000000000000e+03
-1.006700000000000000e+04
-1.066000000000000000e+04
-1.159400000000000000e+04
-1.250700000000000000e+04
-1.313400000000000000e+04
-1.372600000000000000e+04
-1.387900000000000000e+04
-1.402100000000000000e+04
-1.437600000000000000e+04
-1.385400000000000000e+04
-1.324000000000000000e+04
-1.270300000000000000e+04
-1.230700000000000000e+04
-1.182600000000000000e+04
-1.119400000000000000e+04
-1.032800000000000000e+04
-9.493000000000000000e+03
-8.724000000000000000e+03
-8.925000000000000000e+03
-8.984000000000000000e+03
-9.682000000000000000e+03
-1.069700000000000000e+04
-1.178900000000000000e+04
-1.243600000000000000e+04
-1.268800000000000000e+04
-1.359400000000000000e+04
-1.370500000000000000e+04
-1.312600000000000000e+04
-1.262200000000000000e+04
-1.328300000000000000e+04
-1.291400000000000000e+04
-1.229500000000000000e+04
-1.176900000000000000e+04
-1.109900000000000000e+04
-1.001100000000000000e+04
-9.810000000000000000e+03
-1.040700000000000000e+04
-1.432200000000000000e+04
-1.538300000000000000e+04
-1.073700000000000000e+04
-9.508000000000000000e+03
-1.048700000000000000e+04
-1.206200000000000000e+04
-1.475300000000000000e+04
-1.296900000000000000e+04
-1.330200000000000000e+04
-1.399400000000000000e+04
-1.850200000000000000e+04
-1.712200000000000000e+04
-1.344700000000000000e+04
-1.327500000000000000e+04
-1.248600000000000000e+04
-1.173600000000000000e+04
-1.146700000000000000e+04
-1.021400000000000000e+04
-9.079000000000000000e+03
-8.770000000000000000e+03
-8.899000000000000000e+03
-8.447000000000000000e+03
-8.551000000000000000e+03
-1.222400000000000000e+04
-1.395300000000000000e+04
-1.355300000000000000e+04
-1.185200000000000000e+04
-1.227500000000000000e+04
-1.238000000000000000e+04
-1.210200000000000000e+04
-1.194400000000000000e+04
-1.200400000000000000e+04
-1.222100000000000000e+04
-1.199400000000000000e+04
-1.307900000000000000e+04
-1.426800000000000000e+04
-1.067300000000000000e+04
-9.271000000000000000e+03
-8.346000000000000000e+03
-7.474000000000000000e+03
-7.149000000000000000e+03
-7.196000000000000000e+03
-7.625000000000000000e+03
-8.206000000000000000e+03
-9.541000000000000000e+03
-1.049200000000000000e+04
-1.133600000000000000e+04
-1.172000000000000000e+04
-1.223100000000000000e+04
-1.260400000000000000e+04
-1.294600000000000000e+04
-1.242400000000000000e+04
-1.246500000000000000e+04
-1.300100000000000000e+04
-1.361700000000000000e+04
-1.253600000000000000e+04
-1.147700000000000000e+04
-1.068100000000000000e+04
-9.944000000000000000e+03
-9.154000000000000000e+03
-8.980000000000000000e+03
-9.224000000000000000e+03
-9.374000000000000000e+03
-9.598000000000000000e+03
-1.030600000000000000e+04
-1.132900000000000000e+04
-1.195300000000000000e+04
-1.288500000000000000e+04
-1.323100000000000000e+04
-1.340200000000000000e+04
-1.351800000000000000e+04
-1.354100000000000000e+04
-1.376400000000000000e+04
-1.345700000000000000e+04
-1.293600000000000000e+04
-1.247500000000000000e+04
-1.160900000000000000e+04
-1.051400000000000000e+04
-9.885000000000000000e+03
-9.547000000000000000e+03
-9.318000000000000000e+03
-9.579000000000000000e+03
-9.524000000000000000e+03
-9.706000000000000000e+03
-1.110100000000000000e+04
-1.194000000000000000e+04
-1.265600000000000000e+04
-1.365900000000000000e+04
-1.491200000000000000e+04
-1.529400000000000000e+04
-1.529200000000000000e+04
-1.514400000000000000e+04
-1.514100000000000000e+04
-1.492900000000000000e+04
-1.474400000000000000e+04
-1.406600000000000000e+04
-1.319800000000000000e+04
-1.268200000000000000e+04
-1.218100000000000000e+04
-1.127600000000000000e+04
-9.756000000000000000e+03
-9.892000000000000000e+03
-1.028300000000000000e+04
-1.079800000000000000e+04
-1.096700000000000000e+04
-1.119100000000000000e+04
-1.252700000000000000e+04
-1.425900000000000000e+04
-1.719200000000000000e+04
-2.147600000000000000e+04
-2.415900000000000000e+04
-2.450600000000000000e+04
-2.346400000000000000e+04
-1.729600000000000000e+04
-1.341900000000000000e+04
-1.671500000000000000e+04
-2.077400000000000000e+04
-1.752200000000000000e+04
-1.109000000000000000e+04
-9.232000000000000000e+03
-1.053300000000000000e+04
-1.655400000000000000e+04
-1.809100000000000000e+04
-1.664200000000000000e+04
-1.160900000000000000e+04
-1.117200000000000000e+04
-1.213400000000000000e+04
-1.316500000000000000e+04
-1.534200000000000000e+04
-1.853200000000000000e+04
-1.715900000000000000e+04
-1.606100000000000000e+04
-1.756400000000000000e+04
-1.457600000000000000e+04
-1.377700000000000000e+04
-1.308500000000000000e+04
-1.229300000000000000e+04
-1.184200000000000000e+04
-1.087000000000000000e+04
-1.005200000000000000e+04
-9.582000000000000000e+03
-9.737000000000000000e+03
-9.774000000000000000e+03
-1.034100000000000000e+04
-1.112200000000000000e+04
-1.167400000000000000e+04
-1.265100000000000000e+04
-1.345900000000000000e+04
-1.390000000000000000e+04
-1.404600000000000000e+04
-1.449700000000000000e+04
-1.431200000000000000e+04
-1.414900000000000000e+04
-1.397300000000000000e+04
-1.354900000000000000e+04
-1.299600000000000000e+04
-1.226000000000000000e+04
-1.166800000000000000e+04
-1.077100000000000000e+04
-1.048200000000000000e+04
-9.957000000000000000e+03
-9.829000000000000000e+03
-1.039600000000000000e+04
-1.069200000000000000e+04
-1.121700000000000000e+04
-1.183100000000000000e+04
-1.282600000000000000e+04
-1.382600000000000000e+04
-1.448200000000000000e+04
-1.525200000000000000e+04
-1.559400000000000000e+04
-1.549200000000000000e+04
-1.508600000000000000e+04
-1.479700000000000000e+04
-1.486100000000000000e+04
-1.416600000000000000e+04
-1.464600000000000000e+04
-1.657400000000000000e+04
-1.312900000000000000e+04
-1.094100000000000000e+04
-1.028100000000000000e+04
-1.046900000000000000e+04
-1.045200000000000000e+04
-1.081700000000000000e+04
-1.137000000000000000e+04
-1.372400000000000000e+04
-1.655100000000000000e+04
-1.426800000000000000e+04
-1.449400000000000000e+04
-1.469200000000000000e+04
-1.508700000000000000e+04
-1.483100000000000000e+04
-1.430700000000000000e+04
-1.380700000000000000e+04
-1.358400000000000000e+04
-1.314100000000000000e+04
-1.302700000000000000e+04
-1.217400000000000000e+04
-1.111300000000000000e+04
-1.057900000000000000e+04
-9.454000000000000000e+03
-9.133000000000000000e+03
-9.861000000000000000e+03
-1.072800000000000000e+04
-1.158900000000000000e+04
-1.238700000000000000e+04
-1.302900000000000000e+04
-1.366600000000000000e+04
-1.417200000000000000e+04
-1.466100000000000000e+04
-1.499000000000000000e+04
-1.494400000000000000e+04
-1.487600000000000000e+04
-1.508300000000000000e+04
-1.489300000000000000e+04
-1.405400000000000000e+04
-1.314400000000000000e+04
-1.256400000000000000e+04
-1.184000000000000000e+04
-1.142200000000000000e+04
-1.067500000000000000e+04
-1.028200000000000000e+04
-1.039000000000000000e+04
-1.061300000000000000e+04
-1.138900000000000000e+04
-1.244100000000000000e+04
-1.326100000000000000e+04
-1.409100000000000000e+04
-1.484400000000000000e+04
-1.523400000000000000e+04
-1.542400000000000000e+04
-1.519700000000000000e+04
-1.486300000000000000e+04
-1.503400000000000000e+04
-1.478000000000000000e+04
-1.450000000000000000e+04
-1.391300000000000000e+04
-1.272900000000000000e+04
-1.138100000000000000e+04
-1.063100000000000000e+04
-1.008900000000000000e+04
-9.806000000000000000e+03
-9.779000000000000000e+03
-1.048400000000000000e+04
-1.144300000000000000e+04
-1.262700000000000000e+04
-1.452400000000000000e+04
-1.524400000000000000e+04
-1.627500000000000000e+04
-1.726600000000000000e+04
-1.709600000000000000e+04
-1.611300000000000000e+04
-1.552100000000000000e+04
-1.551700000000000000e+04
-1.530600000000000000e+04
-1.486600000000000000e+04
-1.411900000000000000e+04
-1.346500000000000000e+04
-1.251800000000000000e+04
-1.149900000000000000e+04
-1.084700000000000000e+04
-1.078600000000000000e+04
-1.121400000000000000e+04
-1.141400000000000000e+04
-1.155100000000000000e+04
-1.213100000000000000e+04
-1.296700000000000000e+04
-1.368200000000000000e+04
-1.408200000000000000e+04
-1.437100000000000000e+04
-1.488200000000000000e+04
-1.518100000000000000e+04
-1.527400000000000000e+04
-1.505500000000000000e+04
-1.465600000000000000e+04
-1.459200000000000000e+04
-1.472600000000000000e+04
-1.413200000000000000e+04
-1.313000000000000000e+04
-1.209000000000000000e+04
-1.087100000000000000e+04
-1.004900000000000000e+04
-1.020200000000000000e+04
-1.075800000000000000e+04
-1.115600000000000000e+04
-1.080500000000000000e+04
-1.139200000000000000e+04
-1.317900000000000000e+04
-1.484400000000000000e+04
-1.528700000000000000e+04
-1.592200000000000000e+04
-1.650600000000000000e+04
-1.649400000000000000e+04
-1.645000000000000000e+04
-1.667600000000000000e+04
-1.637200000000000000e+04
-1.539400000000000000e+04
-1.631600000000000000e+04
-1.811400000000000000e+04
-1.621000000000000000e+04
-1.236500000000000000e+04
-1.321200000000000000e+04
-1.984600000000000000e+04
-2.278900000000000000e+04
-2.347800000000000000e+04
-2.398200000000000000e+04
-2.540400000000000000e+04
-2.699000000000000000e+04
-2.673600000000000000e+04
-2.608400000000000000e+04
-2.571400000000000000e+04
-2.592000000000000000e+04
-2.613900000000000000e+04
-2.481000000000000000e+04
-2.331500000000000000e+04
-2.071700000000000000e+04
-1.717200000000000000e+04
-1.985600000000000000e+04
-1.902100000000000000e+04
-1.802600000000000000e+04
-1.706100000000000000e+04
-1.689400000000000000e+04
-1.630900000000000000e+04
-1.526700000000000000e+04
-1.487200000000000000e+04
-1.091800000000000000e+04
-1.038100000000000000e+04
-1.671700000000000000e+04
-2.064200000000000000e+04
-2.160200000000000000e+04
-2.109600000000000000e+04
-2.057300000000000000e+04
-1.662300000000000000e+04
-1.493400000000000000e+04
-1.869000000000000000e+04
-1.800700000000000000e+04
-1.136200000000000000e+04
-8.382000000000000000e+03
-7.787000000000000000e+03
-7.275000000000000000e+03
-7.079000000000000000e+03
-6.031000000000000000e+03
-5.662000000000000000e+03
-6.081000000000000000e+03
-6.677000000000000000e+03
-7.207000000000000000e+03
-8.341000000000000000e+03
-9.593000000000000000e+03
-9.861000000000000000e+03
-9.919000000000000000e+03
-1.045600000000000000e+04
-1.043800000000000000e+04
-1.030600000000000000e+04
-1.035600000000000000e+04
-9.464000000000000000e+03
-8.694000000000000000e+03
-8.418000000000000000e+03
-7.509000000000000000e+03
-6.657000000000000000e+03
-5.906000000000000000e+03
-5.702000000000000000e+03
-6.000000000000000000e+03
-6.450000000000000000e+03
-6.769000000000000000e+03
-7.441000000000000000e+03
-8.091000000000000000e+03
-9.160000000000000000e+03
-9.556000000000000000e+03
-1.043000000000000000e+04
-1.119400000000000000e+04
-1.191600000000000000e+04
-1.227100000000000000e+04
-1.264600000000000000e+04
-1.278000000000000000e+04
-1.218800000000000000e+04
-1.126700000000000000e+04
-1.188700000000000000e+04
-1.153400000000000000e+04
-1.011900000000000000e+04
-8.697000000000000000e+03
-7.629000000000000000e+03
-7.699000000000000000e+03
-8.241000000000000000e+03
-8.402000000000000000e+03
-9.045000000000000000e+03
-9.581000000000000000e+03
-1.022700000000000000e+04
-1.017400000000000000e+04
-9.197000000000000000e+03
-9.426000000000000000e+03
-1.025900000000000000e+04
-1.071200000000000000e+04
-1.137400000000000000e+04
-1.136800000000000000e+04
-1.076000000000000000e+04
-1.066700000000000000e+04
-9.863000000000000000e+03
-8.416000000000000000e+03
-6.529000000000000000e+03
-4.667000000000000000e+03
-4.404000000000000000e+03
-5.071000000000000000e+03
-5.772000000000000000e+03
-6.690000000000000000e+03
-8.411000000000000000e+03
-9.713000000000000000e+03
-1.059900000000000000e+04
-1.143200000000000000e+04
-1.170100000000000000e+04
-1.091200000000000000e+04
-1.068100000000000000e+04
-1.042400000000000000e+04
-1.035400000000000000e+04
-1.046600000000000000e+04
-9.906000000000000000e+03
-8.615000000000000000e+03
-7.946000000000000000e+03
-7.301000000000000000e+03
-6.417000000000000000e+03
-5.826000000000000000e+03
-5.124000000000000000e+03
-4.705000000000000000e+03
-4.702000000000000000e+03
-5.099000000000000000e+03
-6.409000000000000000e+03
-8.161000000000000000e+03
-9.885000000000000000e+03
-1.251500000000000000e+04
-1.383900000000000000e+04
-1.337700000000000000e+04
-1.284100000000000000e+04
-1.490900000000000000e+04
-2.084700000000000000e+04
-2.504500000000000000e+04
-2.342100000000000000e+04
-1.531500000000000000e+04
-1.329900000000000000e+04
-1.268600000000000000e+04
-1.133400000000000000e+04
-1.032800000000000000e+04
-1.070000000000000000e+04
-1.362400000000000000e+04
-9.083000000000000000e+03
-6.050000000000000000e+03
-5.931000000000000000e+03
-6.918000000000000000e+03
-6.247000000000000000e+03
-6.127000000000000000e+03
-7.232000000000000000e+03
-9.049000000000000000e+03
-1.107800000000000000e+04
-1.249900000000000000e+04
-1.275100000000000000e+04
-1.180400000000000000e+04
-1.142700000000000000e+04
-1.138100000000000000e+04
-1.195700000000000000e+04
-1.159900000000000000e+04
-9.975000000000000000e+03
-9.328000000000000000e+03
-9.166000000000000000e+03
-9.388000000000000000e+03
-1.037700000000000000e+04
-9.082000000000000000e+03
-7.649000000000000000e+03
-8.012000000000000000e+03
-8.274000000000000000e+03
-9.012000000000000000e+03
-9.459000000000000000e+03
-9.537000000000000000e+03
-8.997000000000000000e+03
-9.452000000000000000e+03
-1.055700000000000000e+04
-1.073900000000000000e+04
-1.015300000000000000e+04
-9.009000000000000000e+03
-7.884000000000000000e+03
-6.935000000000000000e+03
-6.931000000000000000e+03
-6.867000000000000000e+03
-6.746000000000000000e+03
-6.820000000000000000e+03
-7.351000000000000000e+03
-7.807000000000000000e+03
-7.629000000000000000e+03
-8.271000000000000000e+03
-9.072000000000000000e+03
-9.702000000000000000e+03
-1.031700000000000000e+04
-1.114800000000000000e+04
-1.070700000000000000e+04
-1.014500000000000000e+04
-1.100100000000000000e+04
-1.254600000000000000e+04
-1.279400000000000000e+04
-1.233100000000000000e+04
-1.213700000000000000e+04
-1.255700000000000000e+04
-1.234400000000000000e+04
-1.161300000000000000e+04
-1.027400000000000000e+04
-7.672000000000000000e+03
-4.912000000000000000e+03
-3.719000000000000000e+03
-4.322000000000000000e+03
-6.819000000000000000e+03
-9.782000000000000000e+03
-6.512000000000000000e+03
-6.499000000000000000e+03
-7.776000000000000000e+03
-8.762000000000000000e+03
-1.000400000000000000e+04
-1.146000000000000000e+04
-1.179600000000000000e+04
-1.359800000000000000e+04
-1.344400000000000000e+04
-1.178900000000000000e+04
-9.245000000000000000e+03
-7.237000000000000000e+03
-5.646000000000000000e+03
-4.474000000000000000e+03
-6.611000000000000000e+03
-1.031700000000000000e+04
-8.614000000000000000e+03
-8.640000000000000000e+03
-1.183900000000000000e+04
-1.413000000000000000e+04
-1.105600000000000000e+04
-1.228100000000000000e+04
-1.153400000000000000e+04
-8.125000000000000000e+03
-1.078700000000000000e+04
-1.325200000000000000e+04
-1.471700000000000000e+04
-1.510600000000000000e+04
-1.314700000000000000e+04
-1.264100000000000000e+04
-8.587000000000000000e+03
-7.346000000000000000e+03
-1.152100000000000000e+04
-1.062400000000000000e+04
-7.460000000000000000e+03
-7.707000000000000000e+03
-9.676000000000000000e+03
-9.907000000000000000e+03
-8.175000000000000000e+03
-7.456000000000000000e+03
-7.096000000000000000e+03
-7.519000000000000000e+03
-7.436000000000000000e+03
-7.466000000000000000e+03
-8.779000000000000000e+03
-1.194900000000000000e+04
-1.489400000000000000e+04
-1.397600000000000000e+04
-1.248100000000000000e+04
-1.252000000000000000e+04
-1.403600000000000000e+04
-1.586100000000000000e+04
-1.622100000000000000e+04
-1.634200000000000000e+04
-1.632400000000000000e+04
-1.445200000000000000e+04
-1.115200000000000000e+04
-6.558000000000000000e+03
-6.819000000000000000e+03
-1.145200000000000000e+04
-1.027700000000000000e+04
-8.006000000000000000e+03
-8.584000000000000000e+03
-1.001900000000000000e+04
-1.225400000000000000e+04
-1.304900000000000000e+04
-1.261100000000000000e+04
-1.218200000000000000e+04
-1.219600000000000000e+04
-9.007000000000000000e+03
-3.684000000000000000e+03
-1.968000000000000000e+03
-4.527000000000000000e+03
-7.686000000000000000e+03
-8.952000000000000000e+03
-1.075100000000000000e+04
-1.436900000000000000e+04
-1.785700000000000000e+04
-1.721600000000000000e+04
-1.537600000000000000e+04
-1.796100000000000000e+04
-2.382200000000000000e+04
-2.791700000000000000e+04
-2.422900000000000000e+04
-1.992600000000000000e+04
-1.933200000000000000e+04
-1.577700000000000000e+04
-9.780000000000000000e+03
-2.404000000000000000e+03
1.370000000000000000e+02
6.690000000000000000e+02
-1.380000000000000000e+02
-1.627000000000000000e+03
-1.180000000000000000e+02
1.165000000000000000e+03
6.380000000000000000e+02
-1.479000000000000000e+03
-4.872000000000000000e+03
-7.147000000000000000e+03
-9.148000000000000000e+03
-1.138800000000000000e+04
-1.328500000000000000e+04
-1.037100000000000000e+04
-4.825000000000000000e+03
-3.589000000000000000e+03
-6.553000000000000000e+03
-8.597000000000000000e+03
-1.289800000000000000e+04
-1.980800000000000000e+04
-2.519700000000000000e+04
-3.221000000000000000e+04
-3.830400000000000000e+04
-4.010400000000000000e+04
-3.842600000000000000e+04
-3.537900000000000000e+04
-3.148200000000000000e+04
-2.887500000000000000e+04
-3.115600000000000000e+04
-3.424100000000000000e+04
-3.609100000000000000e+04
-3.618600000000000000e+04
-3.608500000000000000e+04
-3.881400000000000000e+04
-3.941400000000000000e+04
-3.370000000000000000e+04
-2.662400000000000000e+04
-1.880600000000000000e+04
-1.283700000000000000e+04
-1.428100000000000000e+04
-1.744600000000000000e+04
-1.929100000000000000e+04
-2.598300000000000000e+04
-2.450900000000000000e+04
-2.512200000000000000e+04
-2.834700000000000000e+04
-3.552100000000000000e+04
-3.839200000000000000e+04
-4.070600000000000000e+04
-4.057100000000000000e+04
-4.146000000000000000e+04
-5.312400000000000000e+04
-7.081200000000000000e+04
-7.232500000000000000e+04
-5.216700000000000000e+04
-3.435900000000000000e+04
-2.068600000000000000e+04
-1.129100000000000000e+04
-8.231000000000000000e+03
-4.072000000000000000e+03
-7.266000000000000000e+03
-1.277100000000000000e+04
-2.032900000000000000e+04
-2.787600000000000000e+04
-2.728200000000000000e+04
-2.210900000000000000e+04
-1.744600000000000000e+04
-1.809400000000000000e+04
-1.217300000000000000e+04
-8.021000000000000000e+03
-2.033100000000000000e+04
-3.941400000000000000e+04
-4.618200000000000000e+04
-4.263100000000000000e+04
-4.545100000000000000e+04
-5.329700000000000000e+04
-5.336700000000000000e+04
-4.444900000000000000e+04
-3.718400000000000000e+04
-3.597100000000000000e+04
-4.347700000000000000e+04
-4.460600000000000000e+04
-4.316900000000000000e+04
-4.272600000000000000e+04
-4.126900000000000000e+04
-3.238400000000000000e+04
-2.202100000000000000e+04
-1.241000000000000000e+04
-1.237400000000000000e+04
-1.867800000000000000e+04
-2.457100000000000000e+04
-2.374300000000000000e+04
-2.661900000000000000e+04
-3.452100000000000000e+04
-3.115900000000000000e+04
-2.117000000000000000e+04
-1.959100000000000000e+04
-3.502200000000000000e+04
-5.505300000000000000e+04
-7.078700000000000000e+04
-6.532700000000000000e+04
-5.122000000000000000e+04
-4.110300000000000000e+04
-3.101900000000000000e+04
-2.623300000000000000e+04
-2.909800000000000000e+04
-2.609600000000000000e+04
-1.905400000000000000e+04
-1.977500000000000000e+04
-1.619100000000000000e+04
-1.810900000000000000e+04
-2.276100000000000000e+04
-2.740800000000000000e+04
-3.681500000000000000e+04
-4.925100000000000000e+04
-5.680700000000000000e+04
-5.045700000000000000e+04
-3.971700000000000000e+04
-3.861600000000000000e+04
-4.362500000000000000e+04
-5.069700000000000000e+04
-5.188700000000000000e+04
-4.833700000000000000e+04
-4.101200000000000000e+04
-3.413400000000000000e+04
-3.244500000000000000e+04
-3.472200000000000000e+04
-3.827000000000000000e+04
-3.597200000000000000e+04
-3.391400000000000000e+04
-3.375500000000000000e+04
-3.920600000000000000e+04
-3.773500000000000000e+04
-3.820700000000000000e+04
-4.099500000000000000e+04
-4.303700000000000000e+04
-4.706000000000000000e+04
-5.326900000000000000e+04
-5.681400000000000000e+04
-5.933700000000000000e+04
-6.410300000000000000e+04
-5.549200000000000000e+04
-4.033300000000000000e+04
-3.700900000000000000e+04
-4.317100000000000000e+04
-4.813100000000000000e+04
-5.075900000000000000e+04
-4.833100000000000000e+04
-4.250600000000000000e+04
-4.088900000000000000e+04
-4.426800000000000000e+04
-4.723200000000000000e+04
-5.358700000000000000e+04
-5.524600000000000000e+04
-4.388200000000000000e+04
-3.789200000000000000e+04
-4.167200000000000000e+04
-4.511000000000000000e+04
-4.313900000000000000e+04
-4.492900000000000000e+04
-4.613200000000000000e+04
-4.786900000000000000e+04
-4.922100000000000000e+04
-5.050700000000000000e+04
-5.176100000000000000e+04
-4.370200000000000000e+04
-3.559400000000000000e+04
-3.337100000000000000e+04
-3.808600000000000000e+04
-4.799600000000000000e+04
-5.712100000000000000e+04
-5.464600000000000000e+04
-4.469700000000000000e+04
-3.934700000000000000e+04
-3.520100000000000000e+04
-3.730400000000000000e+04
-4.320900000000000000e+04
-5.032200000000000000e+04
-5.490900000000000000e+04
-4.928100000000000000e+04
-4.310500000000000000e+04
-4.408000000000000000e+04
-4.340600000000000000e+04
-4.407600000000000000e+04
-4.706800000000000000e+04
-4.714200000000000000e+04
-4.687700000000000000e+04
-4.730200000000000000e+04
-4.636100000000000000e+04
-4.572900000000000000e+04
-4.789400000000000000e+04
-4.833300000000000000e+04
-4.787600000000000000e+04
-4.756900000000000000e+04
-4.762400000000000000e+04
-4.722700000000000000e+04
-4.944400000000000000e+04
-5.206200000000000000e+04
-5.331300000000000000e+04
-5.354100000000000000e+04
-4.958100000000000000e+04
-4.794100000000000000e+04
-4.818500000000000000e+04
-5.096700000000000000e+04
-5.298900000000000000e+04
-5.582800000000000000e+04
-5.863100000000000000e+04
-5.514200000000000000e+04
-5.099000000000000000e+04
-4.808700000000000000e+04
-4.476800000000000000e+04
-4.556500000000000000e+04
-4.806300000000000000e+04
-4.978600000000000000e+04
-5.284900000000000000e+04
-5.432700000000000000e+04
-5.727100000000000000e+04
-6.272400000000000000e+04
-6.477900000000000000e+04
-6.362400000000000000e+04
-6.108700000000000000e+04
-6.016500000000000000e+04
-5.996800000000000000e+04
-6.186700000000000000e+04
-6.155500000000000000e+04
-5.825400000000000000e+04
-5.380400000000000000e+04
-5.286900000000000000e+04
-5.363100000000000000e+04
-5.199100000000000000e+04
-5.229700000000000000e+04
-5.231200000000000000e+04
-5.140600000000000000e+04
-5.497500000000000000e+04
-5.509500000000000000e+04
-5.704100000000000000e+04
-5.567400000000000000e+04
-5.429300000000000000e+04
-5.255900000000000000e+04
-5.101100000000000000e+04
-5.195600000000000000e+04
-5.268900000000000000e+04
-4.945500000000000000e+04
-4.573500000000000000e+04
-4.713100000000000000e+04
-5.282900000000000000e+04
-5.325300000000000000e+04
-5.190600000000000000e+04
-4.834200000000000000e+04
-4.699900000000000000e+04
-5.159500000000000000e+04
-5.334200000000000000e+04
-5.308500000000000000e+04
-4.799400000000000000e+04
-4.631300000000000000e+04
-4.620900000000000000e+04
-4.658200000000000000e+04
-4.681600000000000000e+04
-4.718100000000000000e+04
-4.669700000000000000e+04
-4.642800000000000000e+04
-4.659100000000000000e+04
-4.661200000000000000e+04
-4.613900000000000000e+04
-4.524700000000000000e+04
-4.402900000000000000e+04
-4.313700000000000000e+04
-4.299600000000000000e+04
-4.387300000000000000e+04
-4.363800000000000000e+04
-4.365200000000000000e+04
-4.427000000000000000e+04
-4.537600000000000000e+04
-4.579100000000000000e+04
-4.601100000000000000e+04
-4.611600000000000000e+04
-4.665800000000000000e+04
-4.708200000000000000e+04
-4.735600000000000000e+04
-4.739300000000000000e+04
-4.666600000000000000e+04
-4.620400000000000000e+04
-4.601400000000000000e+04
-4.576600000000000000e+04
-4.550400000000000000e+04
-4.498400000000000000e+04
-4.418900000000000000e+04
-4.368200000000000000e+04
-4.297700000000000000e+04
-4.254900000000000000e+04
-4.348600000000000000e+04
-4.383600000000000000e+04
-4.385600000000000000e+04
-4.723600000000000000e+04
-4.573600000000000000e+04
-4.505400000000000000e+04
-4.546600000000000000e+04
-4.499300000000000000e+04
-4.496400000000000000e+04
-4.511700000000000000e+04
-4.543000000000000000e+04
-4.554100000000000000e+04
-4.419000000000000000e+04
-4.269800000000000000e+04
-4.189400000000000000e+04
-4.091500000000000000e+04
-3.949000000000000000e+04
-3.847400000000000000e+04
-3.776200000000000000e+04
-3.715900000000000000e+04
-3.720600000000000000e+04
-3.726400000000000000e+04
-3.771400000000000000e+04
-3.815000000000000000e+04
-3.807900000000000000e+04
-3.778000000000000000e+04
-3.725800000000000000e+04
-3.636400000000000000e+04
-3.524100000000000000e+04
-3.396900000000000000e+04
-3.295200000000000000e+04
-3.199400000000000000e+04
-3.036200000000000000e+04
-2.856900000000000000e+04
-2.728400000000000000e+04
-2.642300000000000000e+04
-2.550900000000000000e+04
-2.412600000000000000e+04
-2.285900000000000000e+04
-2.165100000000000000e+04
-2.089600000000000000e+04
-2.060000000000000000e+04
-2.045700000000000000e+04
-2.021600000000000000e+04
-1.983400000000000000e+04
-1.919000000000000000e+04
-1.804400000000000000e+04
-1.624200000000000000e+04
-1.444300000000000000e+04
-1.372500000000000000e+04
-1.252100000000000000e+04
-1.145900000000000000e+04
-1.077100000000000000e+04
-9.756000000000000000e+03
-8.399000000000000000e+03
-6.946000000000000000e+03
-5.731000000000000000e+03
-5.712000000000000000e+03
-7.616000000000000000e+03
-9.899000000000000000e+03
-9.310000000000000000e+03
-1.003800000000000000e+04
-9.301000000000000000e+03
-8.677000000000000000e+03
-6.832000000000000000e+03
-6.001000000000000000e+03
-4.100000000000000000e+03
3.310000000000000000e+02
2.772000000000000000e+03
3.558000000000000000e+03
5.212000000000000000e+03
7.113000000000000000e+03
8.091000000000000000e+03
9.069000000000000000e+03
1.092200000000000000e+04
1.357800000000000000e+04
1.577500000000000000e+04
1.648300000000000000e+04
1.628300000000000000e+04
1.576900000000000000e+04
1.453700000000000000e+04
1.481100000000000000e+04
1.576600000000000000e+04
1.667200000000000000e+04
1.717900000000000000e+04
1.847400000000000000e+04
1.865700000000000000e+04
1.914400000000000000e+04
1.941800000000000000e+04
1.942100000000000000e+04
1.976600000000000000e+04
1.955900000000000000e+04
1.977400000000000000e+04
2.113200000000000000e+04
2.213400000000000000e+04
2.248800000000000000e+04
2.354800000000000000e+04
2.442100000000000000e+04
2.442600000000000000e+04
2.441600000000000000e+04
2.429900000000000000e+04
2.405900000000000000e+04
2.397900000000000000e+04
2.332400000000000000e+04
2.359400000000000000e+04
2.402300000000000000e+04
2.380400000000000000e+04
2.392400000000000000e+04
2.429900000000000000e+04
2.376700000000000000e+04
2.410200000000000000e+04
2.443100000000000000e+04
2.431700000000000000e+04
2.421300000000000000e+04
2.424300000000000000e+04
2.462400000000000000e+04
2.649600000000000000e+04
2.797600000000000000e+04
2.792600000000000000e+04
2.767800000000000000e+04
2.722300000000000000e+04
2.579900000000000000e+04
2.496100000000000000e+04
2.445800000000000000e+04
2.397900000000000000e+04
2.328100000000000000e+04
2.268700000000000000e+04
2.206600000000000000e+04
2.165700000000000000e+04
1.950300000000000000e+04
1.644600000000000000e+04
1.633400000000000000e+04
2.110300000000000000e+04
2.218900000000000000e+04
2.338100000000000000e+04
2.208400000000000000e+04
2.160400000000000000e+04
2.237700000000000000e+04
2.190100000000000000e+04
2.138600000000000000e+04
2.164300000000000000e+04
2.063600000000000000e+04
1.892600000000000000e+04
1.614000000000000000e+04
1.604400000000000000e+04
1.551000000000000000e+04
1.391400000000000000e+04
1.245900000000000000e+04
1.287600000000000000e+04
1.493900000000000000e+04
1.540100000000000000e+04
1.701400000000000000e+04
1.865300000000000000e+04
1.627800000000000000e+04
2.065000000000000000e+04
1.968300000000000000e+04
2.108300000000000000e+04
2.145500000000000000e+04
2.369100000000000000e+04
2.049600000000000000e+04
2.202600000000000000e+04
2.204100000000000000e+04
2.072400000000000000e+04
1.991900000000000000e+04
1.643500000000000000e+04
1.460300000000000000e+04
1.582700000000000000e+04
1.760300000000000000e+04
1.469100000000000000e+04
1.565200000000000000e+04
1.761700000000000000e+04
1.779600000000000000e+04
1.800000000000000000e+04
1.822600000000000000e+04
1.808900000000000000e+04
1.834000000000000000e+04
1.896600000000000000e+04
1.905900000000000000e+04
1.921600000000000000e+04
1.926600000000000000e+04
1.918100000000000000e+04
1.815100000000000000e+04
1.727700000000000000e+04
1.686000000000000000e+04
1.605200000000000000e+04
1.562500000000000000e+04
1.556400000000000000e+04
1.464500000000000000e+04
1.421700000000000000e+04
1.439000000000000000e+04
1.494000000000000000e+04
1.522600000000000000e+04
1.492300000000000000e+04
1.512700000000000000e+04
1.582200000000000000e+04
1.616400000000000000e+04
1.676400000000000000e+04
1.745500000000000000e+04
1.752000000000000000e+04
1.595300000000000000e+04
1.473300000000000000e+04
1.381500000000000000e+04
1.365100000000000000e+04
1.359900000000000000e+04
1.286700000000000000e+04
1.203400000000000000e+04
1.095300000000000000e+04
1.032200000000000000e+04
1.016900000000000000e+04
1.046300000000000000e+04
1.032500000000000000e+04
1.043600000000000000e+04
1.096400000000000000e+04
1.132600000000000000e+04
1.102100000000000000e+04
1.129900000000000000e+04
1.235100000000000000e+04
1.281900000000000000e+04
1.270900000000000000e+04
1.254400000000000000e+04
1.221600000000000000e+04
1.169700000000000000e+04
1.084300000000000000e+04
9.969000000000000000e+03
9.159000000000000000e+03
8.411000000000000000e+03
7.743000000000000000e+03
7.549000000000000000e+03
7.036000000000000000e+03
6.662000000000000000e+03
6.858000000000000000e+03
7.915000000000000000e+03
7.942000000000000000e+03
8.044000000000000000e+03
8.729000000000000000e+03
9.005000000000000000e+03
8.958000000000000000e+03
9.739000000000000000e+03
1.037400000000000000e+04
1.017700000000000000e+04
9.408000000000000000e+03
8.698000000000000000e+03
8.201000000000000000e+03
7.572000000000000000e+03
4.768000000000000000e+03
9.060000000000000000e+02
-3.640000000000000000e+03
-4.909000000000000000e+03
-4.899000000000000000e+03
-5.067000000000000000e+03
-5.102000000000000000e+03
-5.137000000000000000e+03
-4.486000000000000000e+03
-3.914000000000000000e+03
-3.387000000000000000e+03
-2.942000000000000000e+03
-4.490000000000000000e+02
-6.520000000000000000e+02
-1.379000000000000000e+03
-2.215000000000000000e+03
9.910000000000000000e+02
5.402000000000000000e+03
4.733000000000000000e+03
6.140000000000000000e+02
-4.422000000000000000e+03
-5.611000000000000000e+03
-6.161000000000000000e+03
-6.736000000000000000e+03
-6.710000000000000000e+03
-6.256000000000000000e+03
-2.069000000000000000e+03
2.259000000000000000e+03
3.436000000000000000e+03
3.853000000000000000e+03
4.553000000000000000e+03
5.259000000000000000e+03
5.864000000000000000e+03
6.129000000000000000e+03
6.127000000000000000e+03
5.882000000000000000e+03
5.520000000000000000e+03
4.551000000000000000e+03
2.596000000000000000e+03
1.644000000000000000e+03
1.268000000000000000e+03
5.960000000000000000e+02
-1.800000000000000000e+01
-9.210000000000000000e+02
-7.420000000000000000e+02
-2.920000000000000000e+02
-1.154000000000000000e+03
-1.561000000000000000e+03
-9.020000000000000000e+02
7.400000000000000000e+01
3.560000000000000000e+02
7.650000000000000000e+02
1.005000000000000000e+03
1.593000000000000000e+03
1.816000000000000000e+03
1.778000000000000000e+03
1.776000000000000000e+03
1.084000000000000000e+03
1.080000000000000000e+02
-7.160000000000000000e+02
-1.077000000000000000e+03
-1.926000000000000000e+03
-2.684000000000000000e+03
-3.277000000000000000e+03
-3.476000000000000000e+03
-3.155000000000000000e+03
-3.062000000000000000e+03
-2.077000000000000000e+03
-1.922000000000000000e+03
-1.709000000000000000e+03
-1.077000000000000000e+03
-7.290000000000000000e+02
-4.210000000000000000e+02
-6.310000000000000000e+02
-8.510000000000000000e+02
5.980000000000000000e+02
2.900000000000000000e+01
-1.421000000000000000e+03
-1.679000000000000000e+03
-2.831000000000000000e+03
-2.929000000000000000e+03
-3.468000000000000000e+03
-4.284000000000000000e+03
-4.825000000000000000e+03
-5.030000000000000000e+03
-5.689000000000000000e+03
-5.816000000000000000e+03
-6.855000000000000000e+03
-6.827000000000000000e+03
-6.456000000000000000e+03
-5.754000000000000000e+03
-4.651000000000000000e+03
-3.516000000000000000e+03
-2.609000000000000000e+03
-2.728000000000000000e+03
-3.246000000000000000e+03
-3.734000000000000000e+03
-3.661000000000000000e+03
-3.634000000000000000e+03
-4.261000000000000000e+03
-5.172000000000000000e+03
-5.109000000000000000e+03
-5.349000000000000000e+03
-6.300000000000000000e+03
-6.703000000000000000e+03
-6.777000000000000000e+03
-6.717000000000000000e+03
-6.062000000000000000e+03
-5.619000000000000000e+03
-5.071000000000000000e+03
-4.587000000000000000e+03
-3.897000000000000000e+03
-3.064000000000000000e+03
-2.251000000000000000e+03
-2.521000000000000000e+03
-2.654000000000000000e+03
-3.350000000000000000e+03
-4.806000000000000000e+03
-5.128000000000000000e+03
-5.791000000000000000e+03
-7.561000000000000000e+03
-8.398000000000000000e+03
-8.273000000000000000e+03
-7.298000000000000000e+03
-7.676000000000000000e+03
-8.012000000000000000e+03
-8.197000000000000000e+03
-8.312000000000000000e+03
-8.145000000000000000e+03
-7.949000000000000000e+03
-7.695000000000000000e+03
-7.224000000000000000e+03
-6.666000000000000000e+03
-6.404000000000000000e+03
-5.716000000000000000e+03
-5.579000000000000000e+03
-5.964000000000000000e+03
-5.441000000000000000e+03
-5.898000000000000000e+03
-7.143000000000000000e+03
-8.063000000000000000e+03
-9.051000000000000000e+03
-9.616000000000000000e+03
-9.419000000000000000e+03
-1.000700000000000000e+04
-1.058100000000000000e+04
-1.077200000000000000e+04
-9.882000000000000000e+03
-8.751000000000000000e+03
-8.379000000000000000e+03
-7.878000000000000000e+03
-7.184000000000000000e+03
-6.748000000000000000e+03
-6.268000000000000000e+03
-5.699000000000000000e+03
-5.111000000000000000e+03
-4.669000000000000000e+03
-5.219000000000000000e+03
-7.615000000000000000e+03
-8.099000000000000000e+03
-8.105000000000000000e+03
-9.496000000000000000e+03
-1.031600000000000000e+04
-1.106200000000000000e+04
-1.191200000000000000e+04
-1.103400000000000000e+04
-1.020400000000000000e+04
-1.086900000000000000e+04
-1.129100000000000000e+04
-1.041300000000000000e+04
-8.417000000000000000e+03
-8.739000000000000000e+03
-8.076000000000000000e+03
-6.252000000000000000e+03
-5.500000000000000000e+03
-6.287000000000000000e+03
-6.479000000000000000e+03
-6.295000000000000000e+03
-6.906000000000000000e+03
-7.620000000000000000e+03
-7.885000000000000000e+03
-9.046000000000000000e+03
-9.809000000000000000e+03
-1.074200000000000000e+04
-1.154100000000000000e+04
-1.250100000000000000e+04
-1.280200000000000000e+04
-1.169600000000000000e+04
-1.074200000000000000e+04
-9.100000000000000000e+03
-8.154000000000000000e+03
-7.749000000000000000e+03
-8.019000000000000000e+03
-8.490000000000000000e+03
-8.417000000000000000e+03
-7.062000000000000000e+03
-6.697000000000000000e+03
-7.409000000000000000e+03
-7.727000000000000000e+03
-9.197000000000000000e+03
-1.217500000000000000e+04
-1.464600000000000000e+04
-1.345700000000000000e+04
-1.276700000000000000e+04
-1.393000000000000000e+04
-1.799700000000000000e+04
-1.760800000000000000e+04
-1.722700000000000000e+04
-1.767200000000000000e+04
-1.770900000000000000e+04
-1.353200000000000000e+04
-1.424100000000000000e+04
-1.466200000000000000e+04
-1.156000000000000000e+04
-1.167900000000000000e+04
-1.084600000000000000e+04
-1.243500000000000000e+04
-1.146400000000000000e+04
-1.117900000000000000e+04
-1.281100000000000000e+04
-1.514400000000000000e+04
-1.399600000000000000e+04
-1.237000000000000000e+04
-1.334900000000000000e+04
-1.305100000000000000e+04
-1.508400000000000000e+04
-1.575200000000000000e+04
-1.661900000000000000e+04
-1.625100000000000000e+04
-1.587200000000000000e+04
-1.396200000000000000e+04
-1.127900000000000000e+04
-1.285300000000000000e+04
-9.395000000000000000e+03
-7.701000000000000000e+03
-8.076000000000000000e+03
-8.818000000000000000e+03
-9.756000000000000000e+03
-1.012900000000000000e+04
-1.021300000000000000e+04
-1.093000000000000000e+04
-1.193600000000000000e+04
-1.297200000000000000e+04
-1.365800000000000000e+04
-1.398100000000000000e+04
-1.419600000000000000e+04
-1.436500000000000000e+04
-1.345500000000000000e+04
-1.159900000000000000e+04
-1.148200000000000000e+04
-1.201100000000000000e+04
-1.118400000000000000e+04
-1.035400000000000000e+04
-9.697000000000000000e+03
-9.010000000000000000e+03
-8.711000000000000000e+03
-9.057000000000000000e+03
-9.609000000000000000e+03
-1.019600000000000000e+04
-1.112600000000000000e+04
-1.204700000000000000e+04
-1.286600000000000000e+04
-1.395900000000000000e+04
-1.472000000000000000e+04
-1.557700000000000000e+04
-1.546600000000000000e+04
-1.522900000000000000e+04
-1.482300000000000000e+04
-1.416000000000000000e+04
-1.483100000000000000e+04
-1.436700000000000000e+04
-1.330100000000000000e+04
-1.173700000000000000e+04
-1.000200000000000000e+04
-9.545000000000000000e+03
-8.596000000000000000e+03
-8.447000000000000000e+03
-9.521000000000000000e+03
-1.115700000000000000e+04
-1.227700000000000000e+04
-1.274600000000000000e+04
-1.290800000000000000e+04
-1.331700000000000000e+04
-1.350900000000000000e+04
-1.415500000000000000e+04
-1.556100000000000000e+04
-1.601100000000000000e+04
-1.538200000000000000e+04
-1.477400000000000000e+04
-1.460200000000000000e+04
-1.384400000000000000e+04
-1.292400000000000000e+04
-1.190600000000000000e+04
-1.113600000000000000e+04
-1.064900000000000000e+04
-9.945000000000000000e+03
-9.609000000000000000e+03
-9.937000000000000000e+03
-1.082100000000000000e+04
-1.159100000000000000e+04
-1.224500000000000000e+04
-1.296100000000000000e+04
-1.403600000000000000e+04
-1.475400000000000000e+04
-1.562600000000000000e+04
-1.612600000000000000e+04
-1.594800000000000000e+04
-1.503100000000000000e+04
-1.400300000000000000e+04
-1.343600000000000000e+04
-1.257200000000000000e+04
-1.184200000000000000e+04
-1.130200000000000000e+04
-1.062400000000000000e+04
-1.000600000000000000e+04
-9.283000000000000000e+03
-9.062000000000000000e+03
-9.432000000000000000e+03
-1.063400000000000000e+04
-1.211600000000000000e+04
-1.256600000000000000e+04
-1.320400000000000000e+04
-1.444100000000000000e+04
-1.520100000000000000e+04
-1.555800000000000000e+04
-1.579600000000000000e+04
-1.706300000000000000e+04
-1.932700000000000000e+04
-2.283200000000000000e+04
-2.300300000000000000e+04
-2.232000000000000000e+04
-2.148600000000000000e+04
-1.966600000000000000e+04
-1.956900000000000000e+04
-1.895900000000000000e+04
-1.380900000000000000e+04
-1.030700000000000000e+04
-9.484000000000000000e+03
-9.679000000000000000e+03
-1.074200000000000000e+04
-1.182900000000000000e+04
-1.269900000000000000e+04
-1.319700000000000000e+04
-1.377400000000000000e+04
-1.412700000000000000e+04
-1.440900000000000000e+04
-1.450200000000000000e+04
-1.424500000000000000e+04
-1.313900000000000000e+04
-1.219800000000000000e+04
-1.133300000000000000e+04
-1.079600000000000000e+04
-1.024300000000000000e+04
-9.805000000000000000e+03
-9.354000000000000000e+03
-9.097000000000000000e+03
-9.602000000000000000e+03
-1.001900000000000000e+04
-1.066600000000000000e+04
-1.185300000000000000e+04
-1.278400000000000000e+04
-1.410700000000000000e+04
-1.508800000000000000e+04
-1.521100000000000000e+04
-1.481400000000000000e+04
-1.433600000000000000e+04
-1.453900000000000000e+04
-1.444700000000000000e+04
-1.371100000000000000e+04
-1.285400000000000000e+04
-1.269000000000000000e+04
-1.213900000000000000e+04
-1.161200000000000000e+04
-1.107100000000000000e+04
-1.044100000000000000e+04
-1.006400000000000000e+04
-9.556000000000000000e+03
-9.064000000000000000e+03
-9.693000000000000000e+03
-1.076800000000000000e+04
-1.180700000000000000e+04
-1.291900000000000000e+04
-1.425600000000000000e+04
-1.478800000000000000e+04
-1.548400000000000000e+04
-1.648500000000000000e+04
-1.694600000000000000e+04
-1.649700000000000000e+04
-1.549500000000000000e+04
-1.532400000000000000e+04
-1.360900000000000000e+04
-1.187900000000000000e+04
-1.131000000000000000e+04
-1.368700000000000000e+04
-1.246600000000000000e+04
-9.352000000000000000e+03
-9.581000000000000000e+03
-1.091900000000000000e+04
-1.268300000000000000e+04
-1.481200000000000000e+04
-1.510900000000000000e+04
-1.475600000000000000e+04
-1.525700000000000000e+04
-1.533400000000000000e+04
-1.537800000000000000e+04
-1.576700000000000000e+04
-1.586800000000000000e+04
-1.489700000000000000e+04
-1.272900000000000000e+04
-1.177200000000000000e+04
-1.503800000000000000e+04
-1.484200000000000000e+04
-1.012200000000000000e+04
-9.983000000000000000e+03
-8.917000000000000000e+03
-6.477000000000000000e+03
-6.970000000000000000e+03
-7.927000000000000000e+03
-8.816000000000000000e+03
-9.366000000000000000e+03
-9.928000000000000000e+03
-1.211500000000000000e+04
-1.525600000000000000e+04
-1.511900000000000000e+04
-1.545300000000000000e+04
-1.433500000000000000e+04
-1.208900000000000000e+04
-1.153800000000000000e+04
-1.071300000000000000e+04
-1.355600000000000000e+04
-1.274900000000000000e+04
-1.178300000000000000e+04
-1.472600000000000000e+04
-1.334100000000000000e+04
-1.199900000000000000e+04
-1.131600000000000000e+04
-8.864000000000000000e+03
-1.029700000000000000e+04
-1.025800000000000000e+04
-7.469000000000000000e+03
-7.235000000000000000e+03
-7.743000000000000000e+03
-8.684000000000000000e+03
-9.814000000000000000e+03
-1.099700000000000000e+04
-1.184700000000000000e+04
-1.205600000000000000e+04
-1.164200000000000000e+04
-1.189100000000000000e+04
-1.103900000000000000e+04
-8.898000000000000000e+03
-7.478000000000000000e+03
-7.389000000000000000e+03
-7.517000000000000000e+03
-8.250000000000000000e+03
-8.487000000000000000e+03
-7.935000000000000000e+03
-7.474000000000000000e+03
-7.443000000000000000e+03
-8.813000000000000000e+03
-1.134400000000000000e+04
-1.119900000000000000e+04
-1.181400000000000000e+04
-1.420800000000000000e+04
-1.637000000000000000e+04
-1.816200000000000000e+04
-1.810400000000000000e+04
-1.771200000000000000e+04
-1.747900000000000000e+04
-1.768600000000000000e+04
-1.746600000000000000e+04
-1.609300000000000000e+04
-1.439100000000000000e+04
-1.110100000000000000e+04
-7.844000000000000000e+03
-6.079000000000000000e+03
-6.665000000000000000e+03
-8.726000000000000000e+03
-9.346000000000000000e+03
-7.094000000000000000e+03
-5.966000000000000000e+03
-6.985000000000000000e+03
-7.656000000000000000e+03
-7.427000000000000000e+03
-8.182000000000000000e+03
-9.420000000000000000e+03
-9.467000000000000000e+03
-9.166000000000000000e+03
-1.007400000000000000e+04
-1.124100000000000000e+04
-1.350200000000000000e+04
-1.642000000000000000e+04
-1.793100000000000000e+04
-1.709600000000000000e+04
-1.690500000000000000e+04
-1.657800000000000000e+04
-1.367900000000000000e+04
-1.218300000000000000e+04
-1.577200000000000000e+04
-1.327000000000000000e+04
-6.277000000000000000e+03
-2.109000000000000000e+03
-4.594000000000000000e+03
-8.164000000000000000e+03
-7.992000000000000000e+03
-6.723000000000000000e+03
-5.642000000000000000e+03
-4.564000000000000000e+03
-3.173000000000000000e+03
-3.714000000000000000e+03
-4.816000000000000000e+03
-4.647000000000000000e+03
-5.568000000000000000e+03
-8.649000000000000000e+03
-1.263600000000000000e+04
-1.367100000000000000e+04
-1.356200000000000000e+04
-1.381700000000000000e+04
-1.518600000000000000e+04
-1.665200000000000000e+04
-2.094400000000000000e+04
-2.320100000000000000e+04
-2.167900000000000000e+04
-1.937700000000000000e+04
-1.627400000000000000e+04
-1.688400000000000000e+04
-1.942400000000000000e+04
-1.687100000000000000e+04
-8.237000000000000000e+03
-4.146000000000000000e+03
-4.007000000000000000e+03
-1.167000000000000000e+03
-5.838000000000000000e+03
-1.163800000000000000e+04
-1.195900000000000000e+04
-1.007200000000000000e+04
-9.944000000000000000e+03
-1.115100000000000000e+04
-1.319500000000000000e+04
-1.457700000000000000e+04
-1.125700000000000000e+04
-7.136000000000000000e+03
-8.309000000000000000e+03
-1.174200000000000000e+04
-1.766200000000000000e+04
-2.151200000000000000e+04
-2.082100000000000000e+04
-1.578600000000000000e+04
-8.159000000000000000e+03
-1.586000000000000000e+03
1.963000000000000000e+03
8.530000000000000000e+02
-1.172000000000000000e+03
-4.130000000000000000e+02
-3.356000000000000000e+03
-4.399000000000000000e+03
-7.440000000000000000e+02
3.756000000000000000e+03
5.075000000000000000e+03
2.929000000000000000e+03
-1.397000000000000000e+03
-5.053000000000000000e+03
-6.903000000000000000e+03
-7.292000000000000000e+03
-8.882000000000000000e+03
-1.181000000000000000e+04
-1.312800000000000000e+04
-1.527700000000000000e+04
-2.075900000000000000e+04
-2.374900000000000000e+04
-2.596400000000000000e+04
-2.797900000000000000e+04
-2.453400000000000000e+04
-2.031700000000000000e+04
-1.936200000000000000e+04
-1.899800000000000000e+04
-2.367200000000000000e+04
-2.160100000000000000e+04
-1.490300000000000000e+04
-1.490100000000000000e+04
-1.237700000000000000e+04
-5.057000000000000000e+03
1.866000000000000000e+03
5.334000000000000000e+03
2.606000000000000000e+03
-3.449000000000000000e+03
-1.169700000000000000e+04
-1.795600000000000000e+04
-2.098600000000000000e+04
-2.554700000000000000e+04
-1.946700000000000000e+04
-7.262000000000000000e+03
-4.906000000000000000e+03
-5.242000000000000000e+03
-6.028000000000000000e+03
-7.915000000000000000e+03
-4.723000000000000000e+03
-1.661000000000000000e+03
-6.197000000000000000e+03
-1.142100000000000000e+04
-1.128100000000000000e+04
-1.111400000000000000e+04
-1.710700000000000000e+04
-2.484100000000000000e+04
-2.862900000000000000e+04
-2.208800000000000000e+04
-1.087200000000000000e+04
-5.166000000000000000e+03
-3.031000000000000000e+03
-6.749000000000000000e+03
-1.029500000000000000e+04
-9.155000000000000000e+03
-1.430900000000000000e+04
-1.840700000000000000e+04
-2.289900000000000000e+04
-3.370400000000000000e+04
-3.510000000000000000e+04
-3.619200000000000000e+04
-4.044900000000000000e+04
-3.501300000000000000e+04
-2.431800000000000000e+04
-1.839800000000000000e+04
-1.271900000000000000e+04
-1.143500000000000000e+04
-1.224900000000000000e+04
-1.548900000000000000e+04
-2.488700000000000000e+04
-3.551200000000000000e+04
-3.331700000000000000e+04
-2.933900000000000000e+04
-3.516600000000000000e+04
-4.046400000000000000e+04
-3.828600000000000000e+04
-2.779600000000000000e+04
-5.546000000000000000e+03
1.390500000000000000e+04
1.497500000000000000e+04
1.991000000000000000e+03
-1.409500000000000000e+04
-2.561200000000000000e+04
-3.401200000000000000e+04
-4.229100000000000000e+04
-5.110500000000000000e+04
-6.084800000000000000e+04
-7.153100000000000000e+04
-7.676300000000000000e+04
-7.334700000000000000e+04
-9.098200000000000000e+04
-9.838600000000000000e+04
-7.789400000000000000e+04
-6.245900000000000000e+04
-5.314500000000000000e+04
-4.193000000000000000e+04
-2.302100000000000000e+04
-1.414000000000000000e+04
-2.839900000000000000e+04
-4.941700000000000000e+04
-5.532900000000000000e+04
-5.728100000000000000e+04
-6.379500000000000000e+04
-6.278600000000000000e+04
-5.520100000000000000e+04
-3.988900000000000000e+04
-3.088400000000000000e+04
-2.856600000000000000e+04
-3.805500000000000000e+04
-4.805400000000000000e+04
-5.915400000000000000e+04
-6.882900000000000000e+04
-6.201400000000000000e+04
-5.887000000000000000e+04
-6.617000000000000000e+04
-7.359100000000000000e+04
-7.394600000000000000e+04
-6.595300000000000000e+04
-4.428400000000000000e+04
-2.065500000000000000e+04
-2.550800000000000000e+04
-4.680600000000000000e+04
-5.589900000000000000e+04
-6.556100000000000000e+04
-6.934000000000000000e+04
-5.268400000000000000e+04
-4.333400000000000000e+04
-4.695700000000000000e+04
-7.391400000000000000e+04
-8.792200000000000000e+04
-7.692000000000000000e+04
-5.891400000000000000e+04
-3.819800000000000000e+04
-1.208200000000000000e+04
5.734000000000000000e+03
5.120000000000000000e+03
-1.899600000000000000e+04
-3.285400000000000000e+04
-3.189900000000000000e+04
-3.139600000000000000e+04
-2.710600000000000000e+04
-2.669000000000000000e+04
-4.284600000000000000e+04
-5.989600000000000000e+04
-5.819400000000000000e+04
-5.234100000000000000e+04
-5.331700000000000000e+04
-4.992900000000000000e+04
-3.428100000000000000e+04
-2.744700000000000000e+04
-3.717100000000000000e+04
-5.312200000000000000e+04
-5.239600000000000000e+04
-4.380100000000000000e+04
-3.985400000000000000e+04
-3.202500000000000000e+04
-2.002000000000000000e+04
-2.018300000000000000e+04
-3.439100000000000000e+04
-4.035100000000000000e+04
-3.449900000000000000e+04
-3.717600000000000000e+04
-4.588100000000000000e+04
-5.620100000000000000e+04
-5.922200000000000000e+04
-5.699200000000000000e+04
-5.886000000000000000e+04
-7.456200000000000000e+04
-9.142500000000000000e+04
-8.597600000000000000e+04
-7.177300000000000000e+04
-6.764200000000000000e+04
-5.554900000000000000e+04
-4.545400000000000000e+04
-4.467900000000000000e+04
-3.659900000000000000e+04
-2.434700000000000000e+04
-1.275400000000000000e+04
-1.481800000000000000e+04
-2.514800000000000000e+04
-3.398100000000000000e+04
-4.464000000000000000e+04
-5.361600000000000000e+04
-5.407400000000000000e+04
-5.848400000000000000e+04
-4.973100000000000000e+04
-4.276200000000000000e+04
-5.004100000000000000e+04
-6.147200000000000000e+04
-7.191600000000000000e+04
-5.514100000000000000e+04
-2.819200000000000000e+04
-2.293600000000000000e+04
-3.401700000000000000e+04
-4.194700000000000000e+04
-3.532400000000000000e+04
-2.537400000000000000e+04
-2.798900000000000000e+04
-2.778500000000000000e+04
-2.355600000000000000e+04
-1.915800000000000000e+04
-3.215100000000000000e+04
-5.019700000000000000e+04
-5.989400000000000000e+04
-5.838400000000000000e+04
-5.342600000000000000e+04
-4.659000000000000000e+04
-4.441200000000000000e+04
-4.855600000000000000e+04
-5.221700000000000000e+04
-5.217000000000000000e+04
-5.426900000000000000e+04
-5.315800000000000000e+04
-4.765100000000000000e+04
-3.964500000000000000e+04
-2.622900000000000000e+04
-2.379700000000000000e+04
-3.660500000000000000e+04
-4.199400000000000000e+04
-3.998100000000000000e+04
-3.516400000000000000e+04
-3.206700000000000000e+04
-2.833800000000000000e+04
-3.804700000000000000e+04
-5.339400000000000000e+04
-6.329200000000000000e+04
-6.662900000000000000e+04
-6.159800000000000000e+04
-4.963100000000000000e+04
-4.749100000000000000e+04
-6.082400000000000000e+04
-7.003200000000000000e+04
-5.844700000000000000e+04
-4.482800000000000000e+04
-3.627500000000000000e+04
-3.387700000000000000e+04
-3.908600000000000000e+04
-4.205400000000000000e+04
-4.533900000000000000e+04
-4.910600000000000000e+04
-4.604400000000000000e+04
-4.466900000000000000e+04
-4.252700000000000000e+04
-4.383000000000000000e+04
-5.022200000000000000e+04
-6.024200000000000000e+04
-6.233500000000000000e+04
-5.785700000000000000e+04
-5.648300000000000000e+04
-5.621900000000000000e+04
-5.460100000000000000e+04
-5.105500000000000000e+04
-4.862700000000000000e+04
-5.088800000000000000e+04
-5.327700000000000000e+04
-5.677000000000000000e+04
-5.612800000000000000e+04
-5.444100000000000000e+04
-5.549000000000000000e+04
-6.027400000000000000e+04
-5.427600000000000000e+04
-4.878400000000000000e+04
-4.881900000000000000e+04
-4.922100000000000000e+04
-5.161700000000000000e+04
-5.413100000000000000e+04
-5.717100000000000000e+04
-5.922100000000000000e+04
-6.355200000000000000e+04
-6.884800000000000000e+04
-6.893600000000000000e+04
-6.764600000000000000e+04
-6.343700000000000000e+04
-5.740200000000000000e+04
-5.532800000000000000e+04
-5.897200000000000000e+04
-5.937400000000000000e+04
-5.514900000000000000e+04
-5.404300000000000000e+04
-5.141100000000000000e+04
-4.840300000000000000e+04
-4.631000000000000000e+04
-4.757800000000000000e+04
-5.412700000000000000e+04
-5.892900000000000000e+04
-6.344900000000000000e+04
-6.679100000000000000e+04
-7.156400000000000000e+04
-7.379700000000000000e+04
-7.280000000000000000e+04
-6.830600000000000000e+04
-6.557100000000000000e+04
-6.130400000000000000e+04
-5.945600000000000000e+04
-5.827100000000000000e+04
-5.531800000000000000e+04
-5.115100000000000000e+04
-4.913900000000000000e+04
-5.120100000000000000e+04
-5.184400000000000000e+04
-5.249900000000000000e+04
-5.261700000000000000e+04
-5.172100000000000000e+04
-5.216700000000000000e+04
-5.319600000000000000e+04
-5.396400000000000000e+04
-5.746400000000000000e+04
-6.366400000000000000e+04
-6.713500000000000000e+04
-6.418100000000000000e+04
-6.258100000000000000e+04
-5.577100000000000000e+04
-5.205700000000000000e+04
-5.132200000000000000e+04
-5.183400000000000000e+04
-5.296400000000000000e+04
-5.350100000000000000e+04
-5.333700000000000000e+04
-5.247700000000000000e+04
-5.234800000000000000e+04
-5.273200000000000000e+04
-5.297100000000000000e+04
-5.298100000000000000e+04
-5.429200000000000000e+04
-5.571200000000000000e+04
-5.592400000000000000e+04
-5.635400000000000000e+04
-5.511400000000000000e+04
-5.554500000000000000e+04
-5.654800000000000000e+04
-5.701000000000000000e+04
-5.734900000000000000e+04
-5.776000000000000000e+04
-5.731200000000000000e+04
-5.721200000000000000e+04
-5.634800000000000000e+04
-5.599400000000000000e+04
-5.578400000000000000e+04
-5.448100000000000000e+04
-5.339300000000000000e+04
-5.394900000000000000e+04
-5.391700000000000000e+04
-5.298800000000000000e+04
-5.337200000000000000e+04
-5.476100000000000000e+04
-5.534200000000000000e+04
-5.631600000000000000e+04
-5.818700000000000000e+04
-5.934400000000000000e+04
-5.869100000000000000e+04
-5.671100000000000000e+04
-5.631400000000000000e+04
-5.535200000000000000e+04
-5.408200000000000000e+04
-5.732000000000000000e+04
-5.827200000000000000e+04
-5.682600000000000000e+04
-5.546200000000000000e+04
-5.260700000000000000e+04
-5.504300000000000000e+04
-5.187200000000000000e+04
-5.157100000000000000e+04
-5.673400000000000000e+04
-5.707200000000000000e+04
-5.243700000000000000e+04
-5.232800000000000000e+04
-5.739600000000000000e+04
-5.715900000000000000e+04
-5.676600000000000000e+04
-5.462100000000000000e+04
-5.790400000000000000e+04
-6.062000000000000000e+04
-6.108600000000000000e+04
-5.832200000000000000e+04
-5.613400000000000000e+04
-5.590400000000000000e+04
-5.272600000000000000e+04
-5.440700000000000000e+04
-5.278400000000000000e+04
-4.881700000000000000e+04
-4.997200000000000000e+04
-5.243700000000000000e+04
-5.062000000000000000e+04
-4.663300000000000000e+04
-4.549600000000000000e+04
-4.497200000000000000e+04
-4.606900000000000000e+04
-4.985400000000000000e+04
-4.629800000000000000e+04
-4.427800000000000000e+04
-4.660900000000000000e+04
-4.628400000000000000e+04
-4.348700000000000000e+04
-4.124600000000000000e+04
-4.071000000000000000e+04
-3.645100000000000000e+04
-3.478600000000000000e+04
-3.283000000000000000e+04
-3.117700000000000000e+04
-3.047800000000000000e+04
-2.947600000000000000e+04
-2.796100000000000000e+04
-2.660600000000000000e+04
-2.693400000000000000e+04
-2.723200000000000000e+04
-2.824900000000000000e+04
-2.646000000000000000e+04
-2.375300000000000000e+04
-2.349200000000000000e+04
-2.330600000000000000e+04
-2.420700000000000000e+04
-2.584000000000000000e+04
-2.540900000000000000e+04
-1.697900000000000000e+04
-1.003100000000000000e+04
-1.297300000000000000e+04
-1.260900000000000000e+04
-1.060600000000000000e+04
-1.001900000000000000e+04
-9.368000000000000000e+03
-9.966000000000000000e+03
-9.270000000000000000e+03
-4.506000000000000000e+03
-1.152000000000000000e+03
-2.211000000000000000e+03
-3.896000000000000000e+03
-3.421000000000000000e+03
-3.167000000000000000e+03
-3.248000000000000000e+03
-3.024000000000000000e+03
-2.605000000000000000e+03
-2.151000000000000000e+03
-1.471000000000000000e+03
-2.480000000000000000e+02
1.165000000000000000e+03
2.196000000000000000e+03
3.115000000000000000e+03
3.856000000000000000e+03
4.677000000000000000e+03
5.509000000000000000e+03
6.351000000000000000e+03
6.778000000000000000e+03
7.261000000000000000e+03
7.094000000000000000e+03
6.848000000000000000e+03
6.654000000000000000e+03
6.358000000000000000e+03
6.017000000000000000e+03
5.993000000000000000e+03
5.654000000000000000e+03
5.908000000000000000e+03
6.124000000000000000e+03
6.116000000000000000e+03
6.716000000000000000e+03
7.010000000000000000e+03
7.442000000000000000e+03
8.368000000000000000e+03
9.724000000000000000e+03
1.050400000000000000e+04
1.073100000000000000e+04
1.097500000000000000e+04
1.097600000000000000e+04
1.129400000000000000e+04
1.143600000000000000e+04
1.125200000000000000e+04
1.085400000000000000e+04
1.059200000000000000e+04
1.006400000000000000e+04
8.839000000000000000e+03
5.792000000000000000e+03
2.039000000000000000e+03
1.199000000000000000e+03
7.050000000000000000e+02
2.233000000000000000e+03
3.828000000000000000e+03
4.698000000000000000e+03
4.915000000000000000e+03
5.473000000000000000e+03
6.813000000000000000e+03
8.236000000000000000e+03
8.753000000000000000e+03
8.291000000000000000e+03
8.443000000000000000e+03
8.501000000000000000e+03
1.059900000000000000e+04
1.052800000000000000e+04
7.633000000000000000e+03
6.864000000000000000e+03
7.848000000000000000e+03
9.075000000000000000e+03
1.445400000000000000e+04
1.495900000000000000e+04
9.236000000000000000e+03
7.714000000000000000e+03
8.149000000000000000e+03
9.420000000000000000e+03
1.221600000000000000e+04
1.730600000000000000e+04
2.042100000000000000e+04
2.228500000000000000e+04
2.388500000000000000e+04
2.447300000000000000e+04
2.506900000000000000e+04
2.516600000000000000e+04
2.491400000000000000e+04
2.505600000000000000e+04
2.518600000000000000e+04
2.461000000000000000e+04
2.440900000000000000e+04
2.397900000000000000e+04
2.407900000000000000e+04
2.432500000000000000e+04
2.501400000000000000e+04
2.631400000000000000e+04
2.681800000000000000e+04
2.780600000000000000e+04
2.887000000000000000e+04
2.957800000000000000e+04
3.055800000000000000e+04
3.138300000000000000e+04
3.199000000000000000e+04
3.243700000000000000e+04
3.271300000000000000e+04
3.196600000000000000e+04
3.164400000000000000e+04
3.132300000000000000e+04
3.100700000000000000e+04
3.036900000000000000e+04
3.035800000000000000e+04
3.061400000000000000e+04
3.090100000000000000e+04
3.111400000000000000e+04
3.081000000000000000e+04
3.050800000000000000e+04
3.077100000000000000e+04
3.158600000000000000e+04
3.249800000000000000e+04
3.310700000000000000e+04
3.374300000000000000e+04
3.396300000000000000e+04
3.461800000000000000e+04
3.499500000000000000e+04
3.529700000000000000e+04
3.453100000000000000e+04
3.096800000000000000e+04
3.202200000000000000e+04
3.283200000000000000e+04
3.306400000000000000e+04
3.240200000000000000e+04
3.191800000000000000e+04
3.171400000000000000e+04
3.161400000000000000e+04
3.149400000000000000e+04
3.221200000000000000e+04
3.241400000000000000e+04
3.261600000000000000e+04
3.312900000000000000e+04
3.354700000000000000e+04
3.382300000000000000e+04
3.467000000000000000e+04
3.524900000000000000e+04
3.501300000000000000e+04
3.454800000000000000e+04
3.374100000000000000e+04
3.240300000000000000e+04
3.120300000000000000e+04
3.093500000000000000e+04
3.062400000000000000e+04
3.067100000000000000e+04
3.035100000000000000e+04
2.980200000000000000e+04
2.920900000000000000e+04
2.851300000000000000e+04
2.836900000000000000e+04
2.879400000000000000e+04
2.971100000000000000e+04
2.973400000000000000e+04
2.987800000000000000e+04
3.036100000000000000e+04
3.054900000000000000e+04
3.053300000000000000e+04
3.062400000000000000e+04
3.047800000000000000e+04
3.035200000000000000e+04
3.008500000000000000e+04
2.923700000000000000e+04
2.836200000000000000e+04
2.781800000000000000e+04
2.641400000000000000e+04
2.507300000000000000e+04
2.459600000000000000e+04
2.442900000000000000e+04
2.419300000000000000e+04
2.504900000000000000e+04
2.575700000000000000e+04
2.580100000000000000e+04
2.606200000000000000e+04
2.650800000000000000e+04
2.622300000000000000e+04
2.567600000000000000e+04
2.621700000000000000e+04
2.719300000000000000e+04
2.703900000000000000e+04
2.600400000000000000e+04
2.499600000000000000e+04
2.423800000000000000e+04
2.319300000000000000e+04
2.214100000000000000e+04
2.086300000000000000e+04
2.053800000000000000e+04
2.017600000000000000e+04
1.967600000000000000e+04
1.867600000000000000e+04
1.837900000000000000e+04
1.836200000000000000e+04
1.903400000000000000e+04
1.980000000000000000e+04
2.003100000000000000e+04
2.021800000000000000e+04
2.055000000000000000e+04
2.112100000000000000e+04
2.130400000000000000e+04
2.087600000000000000e+04
1.925800000000000000e+04
1.694600000000000000e+04
1.834600000000000000e+04
1.809400000000000000e+04
1.738100000000000000e+04
1.665600000000000000e+04
1.600200000000000000e+04
1.524800000000000000e+04
1.489800000000000000e+04
1.481900000000000000e+04
1.494200000000000000e+04
1.478500000000000000e+04
1.465900000000000000e+04
1.522100000000000000e+04
1.617300000000000000e+04
1.704200000000000000e+04
1.762400000000000000e+04
1.727900000000000000e+04
1.704900000000000000e+04
1.688700000000000000e+04
1.631500000000000000e+04
1.550100000000000000e+04
1.483900000000000000e+04
1.429500000000000000e+04
1.334000000000000000e+04
1.227700000000000000e+04
1.080000000000000000e+04
1.013900000000000000e+04
9.836000000000000000e+03
9.785000000000000000e+03
1.000000000000000000e+04
9.885000000000000000e+03
1.040300000000000000e+04
1.017900000000000000e+04
8.916000000000000000e+03
9.803000000000000000e+03
1.143800000000000000e+04
1.138000000000000000e+04
9.991000000000000000e+03
8.915000000000000000e+03
9.018000000000000000e+03
1.105600000000000000e+04
1.071800000000000000e+04
9.916000000000000000e+03
8.594000000000000000e+03
6.834000000000000000e+03
6.228000000000000000e+03
6.915000000000000000e+03
6.004000000000000000e+03
1.749000000000000000e+03
8.290000000000000000e+02
3.796000000000000000e+03
3.997000000000000000e+03
4.831000000000000000e+03
3.220000000000000000e+03
7.726000000000000000e+03
7.376000000000000000e+03
6.539000000000000000e+03
7.544000000000000000e+03
5.740000000000000000e+03
7.650000000000000000e+03
3.985000000000000000e+03
1.719000000000000000e+03
1.639000000000000000e+03
2.834000000000000000e+03
-8.600000000000000000e+01
-8.710000000000000000e+02
1.566000000000000000e+03
3.204000000000000000e+03
8.780000000000000000e+02
3.920000000000000000e+02
2.196000000000000000e+03
3.086000000000000000e+03
3.978000000000000000e+03
2.198000000000000000e+03
2.289000000000000000e+03
4.385000000000000000e+03
2.436000000000000000e+03
1.562000000000000000e+03
6.590000000000000000e+02
3.404000000000000000e+03
4.515000000000000000e+03
4.913000000000000000e+03
3.848000000000000000e+03
2.605000000000000000e+03
2.316000000000000000e+03
1.481000000000000000e+03
5.460000000000000000e+02
9.680000000000000000e+02
8.970000000000000000e+02
1.650000000000000000e+03
2.270000000000000000e+03
5.860000000000000000e+02
-1.148000000000000000e+03
-2.240000000000000000e+02
2.171000000000000000e+03
2.428000000000000000e+03
2.074000000000000000e+03
2.754000000000000000e+03
2.029000000000000000e+03
-4.810000000000000000e+02
-1.163000000000000000e+03
-4.100000000000000000e+01
1.289000000000000000e+03
1.647000000000000000e+03
-8.650000000000000000e+02
-3.215000000000000000e+03
-3.469000000000000000e+03
-3.619000000000000000e+03
-3.927000000000000000e+03
-2.507000000000000000e+03
-2.379000000000000000e+03
-3.202000000000000000e+03
-6.015000000000000000e+03
-4.206000000000000000e+03
-3.605000000000000000e+03
-1.904000000000000000e+03
-1.021000000000000000e+03
-2.230000000000000000e+02
5.460000000000000000e+02
-1.960000000000000000e+02
-2.492000000000000000e+03
-5.196000000000000000e+03
-6.072000000000000000e+03
-5.782000000000000000e+03
-4.719000000000000000e+03
-3.881000000000000000e+03
-3.677000000000000000e+03
-5.391000000000000000e+03
-6.437000000000000000e+03
-6.991000000000000000e+03
-7.297000000000000000e+03
-5.709000000000000000e+03
-4.146000000000000000e+03
-2.174000000000000000e+03
-4.700000000000000000e+01
-3.670000000000000000e+02
-1.241000000000000000e+03
-1.051000000000000000e+03
-2.040000000000000000e+02
-7.130000000000000000e+02
-1.874000000000000000e+03
-2.639000000000000000e+03
-4.121000000000000000e+03
-5.586000000000000000e+03
-5.472000000000000000e+03
-5.144000000000000000e+03
-6.144000000000000000e+03
-6.651000000000000000e+03
-6.930000000000000000e+03
-7.222000000000000000e+03
-7.222000000000000000e+03
-6.732000000000000000e+03
-5.602000000000000000e+03
-4.931000000000000000e+03
-4.797000000000000000e+03
-3.983000000000000000e+03
-3.064000000000000000e+03
-3.219000000000000000e+03
-3.329000000000000000e+03
-3.135000000000000000e+03
-4.633000000000000000e+03
-6.419000000000000000e+03
-6.922000000000000000e+03
-7.517000000000000000e+03
-7.882000000000000000e+03
-8.135000000000000000e+03
-9.580000000000000000e+03
-1.053000000000000000e+04
-1.102600000000000000e+04
-1.046500000000000000e+04
-8.046000000000000000e+03
-7.362000000000000000e+03
-9.190000000000000000e+03
-1.353800000000000000e+04
-1.344600000000000000e+04
-1.230100000000000000e+04
-1.194200000000000000e+04
-1.100800000000000000e+04
-9.701000000000000000e+03
-1.045000000000000000e+04
-1.113100000000000000e+04
-6.459000000000000000e+03
-4.702000000000000000e+03
-5.789000000000000000e+03
-7.253000000000000000e+03
-8.656000000000000000e+03
-9.856000000000000000e+03
-1.022800000000000000e+04
-9.918000000000000000e+03
-1.001900000000000000e+04
-1.099900000000000000e+04
-1.145900000000000000e+04
-1.072900000000000000e+04
-8.911000000000000000e+03
-9.293000000000000000e+03
-9.874000000000000000e+03
-7.404000000000000000e+03
-4.290000000000000000e+03
-3.319000000000000000e+03
-3.821000000000000000e+03
-5.721000000000000000e+03
-7.559000000000000000e+03
-8.634000000000000000e+03
-1.062600000000000000e+04
-1.224400000000000000e+04
-1.235700000000000000e+04
-1.206300000000000000e+04
-1.230900000000000000e+04
-1.108600000000000000e+04
-1.089700000000000000e+04
-1.161400000000000000e+04
-1.321100000000000000e+04
-1.514900000000000000e+04
-1.235900000000000000e+04
-7.634000000000000000e+03
-6.845000000000000000e+03
-6.709000000000000000e+03
-6.896000000000000000e+03
-7.312000000000000000e+03
-7.719000000000000000e+03
-8.061000000000000000e+03
-9.046000000000000000e+03
-1.018900000000000000e+04
-1.146800000000000000e+04
-1.297100000000000000e+04
-1.491100000000000000e+04
-1.534700000000000000e+04
-1.395200000000000000e+04
-1.325000000000000000e+04
-1.358500000000000000e+04
-1.328700000000000000e+04
-1.310000000000000000e+04
-1.371200000000000000e+04
-1.359500000000000000e+04
-1.317400000000000000e+04
-1.130700000000000000e+04
-9.736000000000000000e+03
-9.913000000000000000e+03
-1.038600000000000000e+04
-1.033700000000000000e+04
-1.069900000000000000e+04
-1.203100000000000000e+04
-1.364500000000000000e+04
-1.438700000000000000e+04
-1.829100000000000000e+04
-1.976600000000000000e+04
-1.822900000000000000e+04
-1.570300000000000000e+04
-1.354900000000000000e+04
-1.378900000000000000e+04
-1.382400000000000000e+04
-1.483500000000000000e+04
-1.610100000000000000e+04
-1.516800000000000000e+04
-1.218200000000000000e+04
-1.121600000000000000e+04
-1.365800000000000000e+04
-1.335200000000000000e+04
-1.076800000000000000e+04
-1.425400000000000000e+04
-1.147100000000000000e+04
-1.172700000000000000e+04
-1.705200000000000000e+04
-1.499900000000000000e+04
-1.547100000000000000e+04
-1.586600000000000000e+04
-1.751200000000000000e+04
-1.681100000000000000e+04
-1.590600000000000000e+04
-1.905700000000000000e+04
-1.782700000000000000e+04
-1.499900000000000000e+04
-1.622100000000000000e+04
-1.485000000000000000e+04
-1.205800000000000000e+04
-1.213900000000000000e+04
-1.415200000000000000e+04
-1.092100000000000000e+04
-1.215400000000000000e+04
-1.155500000000000000e+04
-1.107400000000000000e+04
-1.351400000000000000e+04
-1.217600000000000000e+04
-1.608900000000000000e+04
-1.801900000000000000e+04
-1.757100000000000000e+04
-1.463600000000000000e+04
-1.426900000000000000e+04
-1.429600000000000000e+04
-1.489600000000000000e+04
-1.439600000000000000e+04
-1.383600000000000000e+04
-1.335200000000000000e+04
-1.290900000000000000e+04
-1.231900000000000000e+04
-1.143000000000000000e+04
-1.047200000000000000e+04
-9.860000000000000000e+03
-9.607000000000000000e+03
-9.975000000000000000e+03
-1.064200000000000000e+04
-1.193200000000000000e+04
-1.291900000000000000e+04
-1.418700000000000000e+04
-1.472600000000000000e+04
-1.612500000000000000e+04
-1.946300000000000000e+04
-1.812000000000000000e+04
-1.738700000000000000e+04
-1.747300000000000000e+04
-1.672600000000000000e+04
-1.587500000000000000e+04
-1.557300000000000000e+04
-1.457900000000000000e+04
-1.414400000000000000e+04
-1.338700000000000000e+04
-1.270500000000000000e+04
-1.205700000000000000e+04
-1.193500000000000000e+04
-1.222700000000000000e+04
-1.242500000000000000e+04
-1.328900000000000000e+04
-1.370000000000000000e+04
-1.413300000000000000e+04
-1.486400000000000000e+04
-1.567200000000000000e+04
-1.613600000000000000e+04
-1.623100000000000000e+04
-1.665300000000000000e+04
-1.718000000000000000e+04
-1.649200000000000000e+04
-1.545400000000000000e+04
-1.530600000000000000e+04
-1.497000000000000000e+04
-1.382900000000000000e+04
-1.320500000000000000e+04
-1.228900000000000000e+04
-1.146400000000000000e+04
-1.115900000000000000e+04
-1.164300000000000000e+04
-1.252700000000000000e+04
-1.361200000000000000e+04
-1.492600000000000000e+04
-1.610700000000000000e+04
-1.579000000000000000e+04
-1.649900000000000000e+04
-1.708100000000000000e+04
-1.772400000000000000e+04
-1.777600000000000000e+04
-1.790500000000000000e+04
-1.760900000000000000e+04
-1.695100000000000000e+04
-1.601500000000000000e+04
-1.562300000000000000e+04
-1.535800000000000000e+04
-1.476300000000000000e+04
-1.392600000000000000e+04
-1.422100000000000000e+04
-1.576900000000000000e+04
-1.872100000000000000e+04
-2.158900000000000000e+04
-1.908500000000000000e+04
-1.466900000000000000e+04
-1.887300000000000000e+04
-2.365000000000000000e+04
-2.516100000000000000e+04
-2.490600000000000000e+04
-2.345900000000000000e+04
-2.388600000000000000e+04
-2.436500000000000000e+04
-2.398200000000000000e+04
-2.425100000000000000e+04
-2.404500000000000000e+04
-2.341800000000000000e+04
-2.374800000000000000e+04
-2.186200000000000000e+04
-1.739600000000000000e+04
-1.570700000000000000e+04
-1.604100000000000000e+04
-1.893200000000000000e+04
-2.002600000000000000e+04
-2.063900000000000000e+04
-1.934300000000000000e+04
-1.858300000000000000e+04
-1.881100000000000000e+04
-1.854200000000000000e+04
-1.541400000000000000e+04
-1.449100000000000000e+04
-1.435300000000000000e+04
-1.446900000000000000e+04
-1.445300000000000000e+04
-1.418600000000000000e+04
-1.349000000000000000e+04
-1.251400000000000000e+04
-1.148500000000000000e+04
-1.095500000000000000e+04
-9.164000000000000000e+03
-7.289000000000000000e+03
-6.077000000000000000e+03
-6.222000000000000000e+03
-7.244000000000000000e+03
-8.128000000000000000e+03
-9.349000000000000000e+03
-1.051900000000000000e+04
-1.096500000000000000e+04
-1.105100000000000000e+04
-1.139900000000000000e+04
-1.235800000000000000e+04
-1.381700000000000000e+04
-1.472900000000000000e+04
-1.446100000000000000e+04
-1.412700000000000000e+04
-1.524200000000000000e+04
-1.509500000000000000e+04
-1.394400000000000000e+04
-1.456900000000000000e+04
-1.418800000000000000e+04
-1.268900000000000000e+04
-1.118000000000000000e+04
-9.277000000000000000e+03
-7.869000000000000000e+03
-9.369000000000000000e+03
-1.047400000000000000e+04
-9.232000000000000000e+03
-6.219000000000000000e+03
-3.220000000000000000e+03
-1.606000000000000000e+03
-1.862000000000000000e+03
-4.382000000000000000e+03
-7.459000000000000000e+03
-9.337000000000000000e+03
-1.036700000000000000e+04
-1.023300000000000000e+04
-8.703000000000000000e+03
-7.083000000000000000e+03
-4.556000000000000000e+03
-8.220000000000000000e+02
5.810000000000000000e+02
8.630000000000000000e+02
-3.510000000000000000e+02
-1.693000000000000000e+03
-2.716000000000000000e+03
-4.666000000000000000e+03
-6.434000000000000000e+03
-7.992000000000000000e+03
-8.582000000000000000e+03
-9.500000000000000000e+03
-9.635000000000000000e+03
-8.409000000000000000e+03
-7.144000000000000000e+03
-7.679000000000000000e+03
-8.947000000000000000e+03
-1.052400000000000000e+04
-1.044600000000000000e+04
-9.960000000000000000e+03
-9.728000000000000000e+03
-9.763000000000000000e+03
-9.007000000000000000e+03
-7.108000000000000000e+03
-6.103000000000000000e+03
-5.897000000000000000e+03
-5.704000000000000000e+03
-4.766000000000000000e+03
-3.632000000000000000e+03
-4.066000000000000000e+03
-5.720000000000000000e+03
-7.587000000000000000e+03
-1.249700000000000000e+04
-1.670800000000000000e+04
-1.467100000000000000e+04
-9.851000000000000000e+03
-6.092000000000000000e+03
-3.794000000000000000e+03
-5.122000000000000000e+03
-8.826000000000000000e+03
-8.494000000000000000e+03
-5.333000000000000000e+03
-2.761000000000000000e+03
-9.810000000000000000e+02
9.080000000000000000e+02
1.233000000000000000e+03
1.005000000000000000e+03
5.330000000000000000e+02
-7.260000000000000000e+02
-3.266000000000000000e+03
-7.291000000000000000e+03
-1.061300000000000000e+04
-1.146500000000000000e+04
-1.337600000000000000e+04
-1.233600000000000000e+04
-6.872000000000000000e+03
-5.504000000000000000e+03
-4.696000000000000000e+03
-3.087000000000000000e+03
-1.680000000000000000e+02
-2.840000000000000000e+02
4.400000000000000000e+01
-2.510000000000000000e+02
-6.510000000000000000e+02
-6.110000000000000000e+02
-2.063000000000000000e+03
-4.787000000000000000e+03
-5.099000000000000000e+03
-5.207000000000000000e+03
-5.016000000000000000e+03
-3.782000000000000000e+03
-3.064000000000000000e+03
-3.429000000000000000e+03
-5.524000000000000000e+03
-6.903000000000000000e+03
-7.317000000000000000e+03
-7.856000000000000000e+03
-8.639000000000000000e+03
-8.392000000000000000e+03
-7.558000000000000000e+03
-6.316000000000000000e+03
-4.945000000000000000e+03
-6.060000000000000000e+03
-5.139000000000000000e+03
-2.042000000000000000e+03
-2.223000000000000000e+03
-5.227000000000000000e+03
-8.896000000000000000e+03
-1.093100000000000000e+04
-1.425900000000000000e+04
-1.472500000000000000e+04
-1.314000000000000000e+04
-1.209100000000000000e+04
-1.316100000000000000e+04
-1.103700000000000000e+04
-6.531000000000000000e+03
-2.237000000000000000e+03
-9.170000000000000000e+02
-2.984000000000000000e+03
-5.210000000000000000e+03
-4.580000000000000000e+03
-3.581000000000000000e+03
-3.958000000000000000e+03
-3.996000000000000000e+03
-3.815000000000000000e+03
-5.737000000000000000e+03
-9.492000000000000000e+03
-1.034300000000000000e+04
-9.918000000000000000e+03
-1.194800000000000000e+04
-1.678100000000000000e+04
-2.047700000000000000e+04
-1.998400000000000000e+04
-1.987600000000000000e+04
-2.418700000000000000e+04
-2.793300000000000000e+04
-3.063400000000000000e+04
-3.390200000000000000e+04
-3.686600000000000000e+04
-3.022100000000000000e+04
-1.831800000000000000e+04
-6.204000000000000000e+03
1.815000000000000000e+03
7.732000000000000000e+03
7.865000000000000000e+03
-1.960000000000000000e+02
-1.013200000000000000e+04
-1.680600000000000000e+04
-1.719900000000000000e+04
-1.729700000000000000e+04
-1.851100000000000000e+04
-1.762400000000000000e+04
-1.373000000000000000e+04
-8.080000000000000000e+03
-5.502000000000000000e+03
-6.703000000000000000e+03
-1.011600000000000000e+04
-1.408900000000000000e+04
-1.882900000000000000e+04
-2.466700000000000000e+04
-2.690900000000000000e+04
-2.383700000000000000e+04
-2.865900000000000000e+04
-3.574900000000000000e+04
-3.556100000000000000e+04
-3.647600000000000000e+04
-3.242700000000000000e+04
-1.777900000000000000e+04
-9.457000000000000000e+03
-1.028200000000000000e+04
-1.387100000000000000e+04
-1.655000000000000000e+04
-2.695600000000000000e+04
-3.294600000000000000e+04
-2.773900000000000000e+04
-2.228700000000000000e+04
-1.905600000000000000e+04
-1.080100000000000000e+04
-1.328000000000000000e+03
4.344000000000000000e+03
2.613000000000000000e+03
2.039000000000000000e+03
-1.231000000000000000e+03
-6.142000000000000000e+03
-7.304000000000000000e+03
-8.130000000000000000e+03
-1.384800000000000000e+04
-1.824700000000000000e+04
-2.006000000000000000e+04
-1.493900000000000000e+04
-6.117000000000000000e+03
-3.207000000000000000e+03
-7.205000000000000000e+03
-1.307200000000000000e+04
-2.562900000000000000e+04
-3.723900000000000000e+04
-3.740200000000000000e+04
-3.736100000000000000e+04
-3.963100000000000000e+04
-3.697300000000000000e+04
-2.207100000000000000e+04
-8.181000000000000000e+03
1.123000000000000000e+03
1.524000000000000000e+03
3.710000000000000000e+03
5.422000000000000000e+03
1.149000000000000000e+03
-1.039000000000000000e+03
7.430000000000000000e+02
4.271000000000000000e+03
7.880000000000000000e+02
-8.755000000000000000e+03
-2.028700000000000000e+04
-2.617600000000000000e+04
-1.970100000000000000e+04
-1.009600000000000000e+04
-5.949000000000000000e+03
-1.024400000000000000e+04
-4.296000000000000000e+03
1.713000000000000000e+03
7.088000000000000000e+03
6.820000000000000000e+02
-9.521000000000000000e+03
-2.879000000000000000e+03
8.363000000000000000e+03
9.864000000000000000e+03
8.811000000000000000e+03
9.697000000000000000e+03
-6.440000000000000000e+02
-1.202100000000000000e+04
-1.757700000000000000e+04
-2.116400000000000000e+04
-2.303400000000000000e+04
-2.468200000000000000e+04
-1.913700000000000000e+04
-8.537000000000000000e+03
1.509000000000000000e+03
8.751000000000000000e+03
2.794000000000000000e+03
-6.328000000000000000e+03
-2.219700000000000000e+04
-3.023700000000000000e+04
-2.298500000000000000e+04
-1.184700000000000000e+04
-5.620000000000000000e+02
1.672600000000000000e+04
3.063300000000000000e+04
3.223700000000000000e+04
1.688200000000000000e+04
1.649000000000000000e+03
-4.471000000000000000e+03
-8.900000000000000000e+03
-1.178800000000000000e+04
-1.051200000000000000e+04
-2.889000000000000000e+03
1.501000000000000000e+03
-4.031000000000000000e+03
-1.063200000000000000e+04
-1.462600000000000000e+04
-1.868200000000000000e+04
-2.340400000000000000e+04
-2.776800000000000000e+04
-3.136800000000000000e+04
-3.021300000000000000e+04
-1.683400000000000000e+04
-6.865000000000000000e+03
-1.608900000000000000e+04
-2.879500000000000000e+04
-3.636400000000000000e+04
-4.059500000000000000e+04
-3.104500000000000000e+04
-1.357100000000000000e+04
-1.834300000000000000e+04
-3.403300000000000000e+04
-4.801600000000000000e+04
-4.553200000000000000e+04
-2.912800000000000000e+04
-1.890400000000000000e+04
-1.878100000000000000e+04
-2.237700000000000000e+04
-2.422200000000000000e+04
-2.400400000000000000e+04
-1.742700000000000000e+04
-1.208300000000000000e+04
-1.419200000000000000e+04
-1.927900000000000000e+04
-3.597400000000000000e+04
-5.041500000000000000e+04
-5.234700000000000000e+04
-5.400900000000000000e+04
-5.289700000000000000e+04
-5.492500000000000000e+04
-5.140600000000000000e+04
-4.603300000000000000e+04
-5.518000000000000000e+04
-4.523100000000000000e+04
-3.099000000000000000e+04
-2.861100000000000000e+04
-2.364800000000000000e+04
-1.156600000000000000e+04
3.184000000000000000e+03
1.911300000000000000e+04
1.436400000000000000e+04
-7.481000000000000000e+03
-2.955200000000000000e+04
-3.678400000000000000e+04
-3.992200000000000000e+04
-4.360900000000000000e+04
-3.879200000000000000e+04
-2.966900000000000000e+04
-2.255800000000000000e+04
-2.680100000000000000e+04
-2.764700000000000000e+04
-2.762600000000000000e+04
-3.451400000000000000e+04
-4.414500000000000000e+04
-5.560700000000000000e+04
-5.200200000000000000e+04
-4.128300000000000000e+04
-3.274000000000000000e+04
-2.867400000000000000e+04
-2.288500000000000000e+04
-1.987900000000000000e+04
-1.956700000000000000e+04
-2.902400000000000000e+04
-4.617500000000000000e+04
-5.816200000000000000e+04
-6.037500000000000000e+04
-7.509800000000000000e+04
-8.738600000000000000e+04
-6.387600000000000000e+04
-4.480100000000000000e+04
-4.860400000000000000e+04
-3.129700000000000000e+04
-1.810400000000000000e+04
-9.416000000000000000e+03
-5.500000000000000000e+03
-1.062700000000000000e+04
-1.937600000000000000e+04
-1.529000000000000000e+04
-1.115000000000000000e+04
-1.484700000000000000e+04
-1.963100000000000000e+04
-2.222800000000000000e+04
-2.709100000000000000e+04
-3.008200000000000000e+04
-2.541900000000000000e+04
-3.101200000000000000e+04
-3.657900000000000000e+04
-3.376700000000000000e+04
-3.026400000000000000e+04
-3.443700000000000000e+04
-4.898600000000000000e+04
-4.206400000000000000e+04
-2.064000000000000000e+04
-1.423900000000000000e+04
-1.139400000000000000e+04
-1.509200000000000000e+04
-2.228600000000000000e+04
-2.897100000000000000e+04
-3.265800000000000000e+04
-3.286100000000000000e+04
-3.096600000000000000e+04
-2.564200000000000000e+04
-2.129400000000000000e+04
-2.173100000000000000e+04
-2.760200000000000000e+04
-3.916000000000000000e+04
-4.807900000000000000e+04
-4.307600000000000000e+04
-3.186900000000000000e+04
-3.183200000000000000e+04
-3.609100000000000000e+04
-4.327400000000000000e+04
-5.238300000000000000e+04
-6.267200000000000000e+04
-6.771400000000000000e+04
-6.050700000000000000e+04
-4.235100000000000000e+04
-2.619400000000000000e+04
-2.007600000000000000e+04
-2.930300000000000000e+04
-3.926800000000000000e+04
-4.535000000000000000e+04
-4.800600000000000000e+04
-5.406200000000000000e+04
-5.751100000000000000e+04
-5.143600000000000000e+04
-4.761600000000000000e+04
-5.287300000000000000e+04
-5.266200000000000000e+04
-4.661700000000000000e+04
-4.536200000000000000e+04
-4.244700000000000000e+04
-4.224000000000000000e+04
-4.407400000000000000e+04
-3.991000000000000000e+04
-2.685700000000000000e+04
-2.459600000000000000e+04
-3.124700000000000000e+04
-4.143900000000000000e+04
-4.893700000000000000e+04
-4.839400000000000000e+04
-4.232500000000000000e+04
-4.523200000000000000e+04
-4.981500000000000000e+04
-4.727300000000000000e+04
-3.771000000000000000e+04
-3.362200000000000000e+04
-3.582400000000000000e+04
-3.402600000000000000e+04
-3.452400000000000000e+04
-3.730100000000000000e+04
-3.543600000000000000e+04
-3.700300000000000000e+04
-4.436200000000000000e+04
-4.929200000000000000e+04
-4.924800000000000000e+04
-4.680000000000000000e+04
-4.692700000000000000e+04
-4.718100000000000000e+04
-4.872100000000000000e+04
-4.737700000000000000e+04
-3.898100000000000000e+04
-3.153200000000000000e+04
-3.086200000000000000e+04
-3.248000000000000000e+04
-3.410700000000000000e+04
-4.018900000000000000e+04
-4.867700000000000000e+04
-5.131200000000000000e+04
-4.797900000000000000e+04
-4.376100000000000000e+04
-3.857900000000000000e+04
-3.940100000000000000e+04
-4.339600000000000000e+04
-4.477600000000000000e+04
-3.930600000000000000e+04
-3.713200000000000000e+04
-4.130900000000000000e+04
-4.310600000000000000e+04
-4.420600000000000000e+04
-4.657300000000000000e+04
-4.745800000000000000e+04
-4.522900000000000000e+04
-4.646800000000000000e+04
-5.002800000000000000e+04
-5.200400000000000000e+04
-5.444600000000000000e+04
-5.318200000000000000e+04
-4.911300000000000000e+04
-4.743400000000000000e+04
-4.766800000000000000e+04
-4.343900000000000000e+04
-4.424700000000000000e+04
-4.802200000000000000e+04
-5.220400000000000000e+04
-5.573800000000000000e+04
-5.688100000000000000e+04
-5.833500000000000000e+04
-5.720700000000000000e+04
-5.457300000000000000e+04
-5.436700000000000000e+04
-5.633500000000000000e+04
-5.630000000000000000e+04
-5.502100000000000000e+04
-5.767300000000000000e+04
-6.005700000000000000e+04
-5.667500000000000000e+04
-5.108600000000000000e+04
-4.589600000000000000e+04
-4.365500000000000000e+04
-4.734500000000000000e+04
-5.132100000000000000e+04
-5.344200000000000000e+04
-5.415400000000000000e+04
-5.051600000000000000e+04
-5.228400000000000000e+04
-5.834700000000000000e+04
-5.744600000000000000e+04
-5.379600000000000000e+04
-5.280400000000000000e+04
-5.401400000000000000e+04
-5.378000000000000000e+04
-5.040500000000000000e+04
-4.744800000000000000e+04
-4.275900000000000000e+04
-4.199700000000000000e+04
-4.277900000000000000e+04
-4.469900000000000000e+04
-4.546200000000000000e+04
-4.469200000000000000e+04
-4.428300000000000000e+04
-4.392500000000000000e+04
-4.380800000000000000e+04
-4.482200000000000000e+04
-4.604700000000000000e+04
-4.653400000000000000e+04
-4.601100000000000000e+04
-4.500700000000000000e+04
-4.495700000000000000e+04
-4.577100000000000000e+04
-4.513900000000000000e+04
-4.369400000000000000e+04
-4.342100000000000000e+04
-4.341400000000000000e+04
-4.324800000000000000e+04
-4.367800000000000000e+04
-4.399400000000000000e+04
-4.415400000000000000e+04
-4.541600000000000000e+04
-4.561200000000000000e+04
-4.521700000000000000e+04
-4.631500000000000000e+04
-4.711600000000000000e+04
-4.669800000000000000e+04
-4.542400000000000000e+04
-4.515700000000000000e+04
-4.509100000000000000e+04
-4.493700000000000000e+04
-4.475100000000000000e+04
-4.410100000000000000e+04
-4.390600000000000000e+04
-4.328900000000000000e+04
-4.210300000000000000e+04
-4.127600000000000000e+04
-4.152600000000000000e+04
-4.135200000000000000e+04
-4.231000000000000000e+04
-4.215600000000000000e+04
-4.263400000000000000e+04
-4.408900000000000000e+04
-4.487100000000000000e+04
-4.505500000000000000e+04
-4.282200000000000000e+04
-4.159300000000000000e+04
-4.197800000000000000e+04
-4.171200000000000000e+04
-4.165100000000000000e+04
-4.178200000000000000e+04
-4.049200000000000000e+04
-3.946900000000000000e+04
-3.897300000000000000e+04
-3.840400000000000000e+04
-3.748800000000000000e+04
-3.657600000000000000e+04
-3.582400000000000000e+04
-3.504400000000000000e+04
-3.473300000000000000e+04
-3.527600000000000000e+04
-3.572900000000000000e+04
-3.670700000000000000e+04
-3.592500000000000000e+04
-3.445400000000000000e+04
-3.273800000000000000e+04
-3.140700000000000000e+04
-3.045300000000000000e+04
-2.988600000000000000e+04
-2.899900000000000000e+04
-2.769700000000000000e+04
-2.618000000000000000e+04
-2.456400000000000000e+04
-2.284900000000000000e+04
-2.154700000000000000e+04
-2.068400000000000000e+04
-1.949100000000000000e+04
-1.889400000000000000e+04
-1.864500000000000000e+04
-1.792100000000000000e+04
-1.711900000000000000e+04
-1.650500000000000000e+04
-1.605600000000000000e+04
-1.515600000000000000e+04
-1.451500000000000000e+04
-1.442700000000000000e+04
-1.454800000000000000e+04
-1.347000000000000000e+04
-1.170200000000000000e+04
-1.047600000000000000e+04
-9.156000000000000000e+03
-7.945000000000000000e+03
-6.737000000000000000e+03
-6.985000000000000000e+03
-7.888000000000000000e+03
-1.007300000000000000e+04
-9.447000000000000000e+03
-8.049000000000000000e+03
-6.257000000000000000e+03
-2.657000000000000000e+03
2.566000000000000000e+03
3.573000000000000000e+03
1.677000000000000000e+03
1.480000000000000000e+02
2.041000000000000000e+03
4.854000000000000000e+03
5.771000000000000000e+03
5.958000000000000000e+03
6.853000000000000000e+03
8.269000000000000000e+03
9.153000000000000000e+03
9.873000000000000000e+03
1.084500000000000000e+04
1.235100000000000000e+04
1.437800000000000000e+04
1.532300000000000000e+04
1.644100000000000000e+04
1.747200000000000000e+04
1.744100000000000000e+04
1.705900000000000000e+04
1.711600000000000000e+04
1.620600000000000000e+04
1.620000000000000000e+04
1.760400000000000000e+04
1.922800000000000000e+04
1.938800000000000000e+04
1.814600000000000000e+04
1.741600000000000000e+04
1.821800000000000000e+04
1.924700000000000000e+04
1.998300000000000000e+04
2.086600000000000000e+04
2.186300000000000000e+04
2.235100000000000000e+04
2.356300000000000000e+04
2.492600000000000000e+04
2.574100000000000000e+04
2.562400000000000000e+04
2.548500000000000000e+04
2.655300000000000000e+04
2.724900000000000000e+04
2.681600000000000000e+04
2.645200000000000000e+04
2.567300000000000000e+04
2.524700000000000000e+04
2.538700000000000000e+04
2.514300000000000000e+04
2.491500000000000000e+04
2.616600000000000000e+04
2.712900000000000000e+04
2.753100000000000000e+04
2.755300000000000000e+04
2.787300000000000000e+04
2.866300000000000000e+04
2.976900000000000000e+04
3.063100000000000000e+04
3.103900000000000000e+04
3.097100000000000000e+04
3.077300000000000000e+04
3.012100000000000000e+04
2.920200000000000000e+04
2.862400000000000000e+04
2.736100000000000000e+04
2.646800000000000000e+04
2.629300000000000000e+04
2.570100000000000000e+04
2.511600000000000000e+04
2.544100000000000000e+04
2.499100000000000000e+04
2.099000000000000000e+04
2.146400000000000000e+04
2.337300000000000000e+04
2.476600000000000000e+04
2.606600000000000000e+04
2.346900000000000000e+04
2.732300000000000000e+04
2.707100000000000000e+04
2.633300000000000000e+04
2.780700000000000000e+04
2.518400000000000000e+04
2.706700000000000000e+04
2.501300000000000000e+04
2.297900000000000000e+04
2.520800000000000000e+04
2.208800000000000000e+04
2.317300000000000000e+04
2.065900000000000000e+04
1.928500000000000000e+04
2.105300000000000000e+04
2.160100000000000000e+04
2.273400000000000000e+04
2.221700000000000000e+04
2.396800000000000000e+04
2.522900000000000000e+04
2.554900000000000000e+04
2.361400000000000000e+04
2.451300000000000000e+04
2.306500000000000000e+04
1.933100000000000000e+04
2.238800000000000000e+04
2.126800000000000000e+04
2.196300000000000000e+04
2.260800000000000000e+04
1.866900000000000000e+04
1.908800000000000000e+04
2.013700000000000000e+04
2.009600000000000000e+04
1.990700000000000000e+04
1.945400000000000000e+04
1.923900000000000000e+04
1.924300000000000000e+04
1.999600000000000000e+04
2.082800000000000000e+04
2.102900000000000000e+04
2.102800000000000000e+04
2.124300000000000000e+04
2.131300000000000000e+04
2.150500000000000000e+04
2.154800000000000000e+04
2.112800000000000000e+04
2.049000000000000000e+04
1.928800000000000000e+04
1.773600000000000000e+04
1.695300000000000000e+04
1.693600000000000000e+04
1.683600000000000000e+04
1.600200000000000000e+04
1.594900000000000000e+04
1.608800000000000000e+04
1.619600000000000000e+04
1.578300000000000000e+04
1.486800000000000000e+04
1.518300000000000000e+04
1.656200000000000000e+04
1.687500000000000000e+04
1.716500000000000000e+04
1.796100000000000000e+04
1.804600000000000000e+04
1.756200000000000000e+04
1.609600000000000000e+04
1.528900000000000000e+04
1.481900000000000000e+04
1.446800000000000000e+04
1.372900000000000000e+04
1.268900000000000000e+04
1.210100000000000000e+04
1.135600000000000000e+04
1.068200000000000000e+04
1.022400000000000000e+04
1.017400000000000000e+04
1.020800000000000000e+04
1.030600000000000000e+04
1.128500000000000000e+04
1.154400000000000000e+04
1.176900000000000000e+04
1.218800000000000000e+04
1.251400000000000000e+04
1.216100000000000000e+04
1.119300000000000000e+04
1.080100000000000000e+04
1.071400000000000000e+04
1.081400000000000000e+04
1.052400000000000000e+04
9.595000000000000000e+03
8.775000000000000000e+03
7.784000000000000000e+03
7.329000000000000000e+03
7.051000000000000000e+03
6.772000000000000000e+03
6.872000000000000000e+03
7.314000000000000000e+03
7.555000000000000000e+03
7.671000000000000000e+03
8.268000000000000000e+03
8.897000000000000000e+03
9.595000000000000000e+03
9.878000000000000000e+03
9.980000000000000000e+03
9.444000000000000000e+03
7.933000000000000000e+03
6.857000000000000000e+03
6.150000000000000000e+03
4.484000000000000000e+03
2.159000000000000000e+03
1.300000000000000000e+01
-3.772000000000000000e+03
-5.271000000000000000e+03
-4.806000000000000000e+03
-5.027000000000000000e+03
-5.340000000000000000e+03
-4.771000000000000000e+03
-4.292000000000000000e+03
-4.485000000000000000e+03
-3.462000000000000000e+03
-2.180000000000000000e+03
1.249000000000000000e+03
5.773000000000000000e+03
3.853000000000000000e+03
-1.775000000000000000e+03
-2.496000000000000000e+03
-2.591000000000000000e+03
-4.800000000000000000e+02
-1.293000000000000000e+03
-4.565000000000000000e+03
-3.136000000000000000e+03
1.018000000000000000e+03
2.081000000000000000e+03
1.598000000000000000e+03
1.538000000000000000e+03
1.453000000000000000e+03
1.093000000000000000e+03
1.743000000000000000e+03
2.782000000000000000e+03
3.175000000000000000e+03
3.677000000000000000e+03
4.055000000000000000e+03
4.432000000000000000e+03
4.578000000000000000e+03
4.811000000000000000e+03
4.677000000000000000e+03
3.610000000000000000e+03
2.396000000000000000e+03
1.348000000000000000e+03
6.020000000000000000e+02
3.180000000000000000e+02
9.400000000000000000e+01
-5.400000000000000000e+01
-7.810000000000000000e+02
-1.720000000000000000e+03
-1.859000000000000000e+03
-1.606000000000000000e+03
-1.072000000000000000e+03
-9.570000000000000000e+02
-4.860000000000000000e+02
-3.590000000000000000e+02
3.330000000000000000e+02
2.019000000000000000e+03
2.292000000000000000e+03
1.983000000000000000e+03
1.081000000000000000e+03
7.150000000000000000e+02
1.295000000000000000e+03
5.520000000000000000e+02
-5.060000000000000000e+02
-1.289000000000000000e+03
-2.258000000000000000e+03
-3.492000000000000000e+03
-4.155000000000000000e+03
-3.840000000000000000e+03
-3.676000000000000000e+03
-3.895000000000000000e+03
-3.781000000000000000e+03
-3.185000000000000000e+03
-3.439000000000000000e+03
-3.062000000000000000e+03
-1.836000000000000000e+03
-5.690000000000000000e+02
-5.810000000000000000e+02
-4.810000000000000000e+02
-9.540000000000000000e+02
-2.456000000000000000e+03
-4.320000000000000000e+03
-7.027000000000000000e+03
-5.927000000000000000e+03
-5.185000000000000000e+03
-5.933000000000000000e+03
-6.686000000000000000e+03
-6.725000000000000000e+03
-7.035000000000000000e+03
-1.068700000000000000e+04
-1.302800000000000000e+04
-1.066100000000000000e+04
-7.237000000000000000e+03
-6.104000000000000000e+03
-4.016000000000000000e+03
-2.316000000000000000e+03
-1.826000000000000000e+03
-2.138000000000000000e+03
-2.614000000000000000e+03
-2.636000000000000000e+03
-2.345000000000000000e+03
-2.847000000000000000e+03
-4.297000000000000000e+03
-6.161000000000000000e+03
-7.566000000000000000e+03
-8.112000000000000000e+03
-8.472000000000000000e+03
-9.285000000000000000e+03
-9.566000000000000000e+03
-9.871000000000000000e+03
-1.228100000000000000e+04
-9.192000000000000000e+03
-8.032000000000000000e+03
-7.455000000000000000e+03
-5.605000000000000000e+03
-6.441000000000000000e+03
-7.283000000000000000e+03
-4.586000000000000000e+03
-4.111000000000000000e+03
-4.942000000000000000e+03
-9.585000000000000000e+03
-1.157700000000000000e+04
-1.198900000000000000e+04
-1.282200000000000000e+04
-9.979000000000000000e+03
-1.220100000000000000e+04
-1.573200000000000000e+04
-1.591800000000000000e+04
-1.528900000000000000e+04
-1.335900000000000000e+04
-1.225000000000000000e+04
-1.140100000000000000e+04
-1.074900000000000000e+04
-1.047800000000000000e+04
-9.742000000000000000e+03
-7.182000000000000000e+03
-6.800000000000000000e+03
-7.995000000000000000e+03
-8.369000000000000000e+03
-8.317000000000000000e+03
-8.850000000000000000e+03
-8.796000000000000000e+03
-9.379000000000000000e+03
-1.155900000000000000e+04
-1.283600000000000000e+04
-1.386900000000000000e+04
-1.370500000000000000e+04
-1.268900000000000000e+04
-1.128200000000000000e+04
-1.140800000000000000e+04
-1.298600000000000000e+04
-1.446300000000000000e+04
-1.369600000000000000e+04
-1.303100000000000000e+04
-1.213600000000000000e+04
-1.013200000000000000e+04
-8.922000000000000000e+03
-8.782000000000000000e+03
-8.974000000000000000e+03
-8.397000000000000000e+03
-8.120000000000000000e+03
-9.543000000000000000e+03
-1.091500000000000000e+04
-1.234100000000000000e+04
-1.354900000000000000e+04
-1.481600000000000000e+04
-1.597300000000000000e+04
-1.607900000000000000e+04
-1.594900000000000000e+04
-1.593200000000000000e+04
-1.633100000000000000e+04
-1.690100000000000000e+04
-1.673400000000000000e+04
-1.604800000000000000e+04
-1.507700000000000000e+04
-1.488100000000000000e+04
-1.397700000000000000e+04
-1.342900000000000000e+04
-1.382100000000000000e+04
-1.464000000000000000e+04
-1.507200000000000000e+04
-1.523800000000000000e+04
-1.575900000000000000e+04
-1.606200000000000000e+04
-1.678700000000000000e+04
-1.718500000000000000e+04
-1.725600000000000000e+04
-1.726200000000000000e+04
-1.737400000000000000e+04
-1.694600000000000000e+04
-1.673100000000000000e+04
-1.663100000000000000e+04
-1.737100000000000000e+04
-1.820200000000000000e+04
-1.711100000000000000e+04
-1.400100000000000000e+04
-1.416200000000000000e+04
-1.653900000000000000e+04
-1.873700000000000000e+04
-2.071700000000000000e+04
-2.227100000000000000e+04
-2.255200000000000000e+04
-2.200400000000000000e+04
-2.282400000000000000e+04
-2.369700000000000000e+04
-2.477100000000000000e+04
-2.591400000000000000e+04
-2.553900000000000000e+04
-2.588200000000000000e+04
-2.575700000000000000e+04
-2.590700000000000000e+04
-2.466200000000000000e+04
-1.996200000000000000e+04
-1.962400000000000000e+04
-2.321600000000000000e+04
-2.281700000000000000e+04
-2.133300000000000000e+04
-1.986200000000000000e+04
-1.957100000000000000e+04
-1.974100000000000000e+04
-1.980100000000000000e+04
-2.008400000000000000e+04
-1.571900000000000000e+04
-1.373800000000000000e+04
-1.903100000000000000e+04
-2.359600000000000000e+04
-2.353800000000000000e+04
-2.412000000000000000e+04
-2.436800000000000000e+04
-2.093600000000000000e+04
-1.749200000000000000e+04
-1.548000000000000000e+04
-1.484700000000000000e+04
-1.414900000000000000e+04
-1.293500000000000000e+04
-1.216400000000000000e+04
-1.148700000000000000e+04
-1.155600000000000000e+04
-1.183200000000000000e+04
-1.150600000000000000e+04
-1.146400000000000000e+04
-1.143400000000000000e+04
-1.187400000000000000e+04
-1.263400000000000000e+04
-1.431100000000000000e+04
-1.513700000000000000e+04
-1.506600000000000000e+04
-1.538600000000000000e+04
-1.644700000000000000e+04
-1.692200000000000000e+04
-1.684800000000000000e+04
-1.530900000000000000e+04
-1.570900000000000000e+04
-1.609200000000000000e+04
-1.404600000000000000e+04
-1.263500000000000000e+04
-1.077000000000000000e+04
-9.555000000000000000e+03
-9.921000000000000000e+03
-1.128400000000000000e+04
-1.145100000000000000e+04
-1.126000000000000000e+04
-1.128700000000000000e+04
-1.204600000000000000e+04
-1.372900000000000000e+04
-1.566300000000000000e+04
-1.705600000000000000e+04
-1.763400000000000000e+04
-1.778300000000000000e+04
-1.685700000000000000e+04
-1.598700000000000000e+04
-1.573100000000000000e+04
-1.582300000000000000e+04
-1.456700000000000000e+04
-1.355300000000000000e+04
-1.250900000000000000e+04
-1.134400000000000000e+04
-1.060700000000000000e+04
-1.052100000000000000e+04
-1.063700000000000000e+04
-1.161600000000000000e+04
-1.243500000000000000e+04
-1.334900000000000000e+04
-1.439100000000000000e+04
-1.508600000000000000e+04
-1.582100000000000000e+04
-1.662800000000000000e+04
-1.704200000000000000e+04
-1.766800000000000000e+04
-1.789500000000000000e+04
-1.723100000000000000e+04
-1.662000000000000000e+04
-1.621200000000000000e+04
-1.588900000000000000e+04
-1.502400000000000000e+04
-1.392400000000000000e+04
-1.297600000000000000e+04
-1.198400000000000000e+04
-1.180900000000000000e+04
-1.212100000000000000e+04
-1.255100000000000000e+04
-1.323300000000000000e+04
-1.347900000000000000e+04
-1.395900000000000000e+04
-1.535900000000000000e+04
-1.602100000000000000e+04
-1.605800000000000000e+04
-1.592600000000000000e+04
-1.613100000000000000e+04
-1.689600000000000000e+04
-1.623200000000000000e+04
-1.578200000000000000e+04
-1.589600000000000000e+04
-1.557200000000000000e+04
-1.523900000000000000e+04
-1.410600000000000000e+04
-1.231400000000000000e+04
-1.120800000000000000e+04
-1.075600000000000000e+04
-1.054400000000000000e+04
-1.159000000000000000e+04
-1.264700000000000000e+04
-1.316900000000000000e+04
-1.404200000000000000e+04
-1.553900000000000000e+04
-1.848800000000000000e+04
-2.370200000000000000e+04
-2.498300000000000000e+04
-2.544100000000000000e+04
-2.921000000000000000e+04
-2.981200000000000000e+04
-3.023800000000000000e+04
-2.976900000000000000e+04
-2.661600000000000000e+04
-2.119700000000000000e+04
-1.796200000000000000e+04
-1.428400000000000000e+04
-1.141500000000000000e+04
-9.644000000000000000e+03
-8.349000000000000000e+03
-7.810000000000000000e+03
-8.988000000000000000e+03
-1.048600000000000000e+04
-1.216400000000000000e+04
-1.440100000000000000e+04
-1.589900000000000000e+04
-1.636700000000000000e+04
-1.747200000000000000e+04
-1.855500000000000000e+04
-1.817600000000000000e+04
-1.652400000000000000e+04
-1.538000000000000000e+04
-1.376100000000000000e+04
-1.166800000000000000e+04
-1.080000000000000000e+04
-1.081000000000000000e+04
-9.367000000000000000e+03
-7.701000000000000000e+03
-8.662000000000000000e+03
-9.900000000000000000e+03
-1.081700000000000000e+04
-1.265600000000000000e+04
-1.346400000000000000e+04
-1.364600000000000000e+04
-1.447200000000000000e+04
-1.520000000000000000e+04
-1.523400000000000000e+04
-1.502400000000000000e+04
-1.541600000000000000e+04
-1.586700000000000000e+04
-1.634700000000000000e+04
-1.517900000000000000e+04
-1.353100000000000000e+04
-1.182700000000000000e+04
-1.108200000000000000e+04
-9.965000000000000000e+03
-9.181000000000000000e+03
-8.776000000000000000e+03
-8.994000000000000000e+03
-9.923000000000000000e+03
-1.068700000000000000e+04
-1.084700000000000000e+04
-1.025400000000000000e+04
-1.081100000000000000e+04
-1.209900000000000000e+04
-1.341200000000000000e+04
-1.444100000000000000e+04
-1.414600000000000000e+04
-1.333100000000000000e+04
-1.261600000000000000e+04
-1.261600000000000000e+04
-1.358200000000000000e+04
-1.302500000000000000e+04
-1.149800000000000000e+04
-1.170600000000000000e+04
-1.174400000000000000e+04
-1.092300000000000000e+04
-9.761000000000000000e+03
-8.174000000000000000e+03
-7.297000000000000000e+03
-9.558000000000000000e+03
-1.396900000000000000e+04
-1.841600000000000000e+04
-2.041500000000000000e+04
-2.000900000000000000e+04
-1.892800000000000000e+04
-2.006700000000000000e+04
-2.125400000000000000e+04
-2.204900000000000000e+04
-2.464200000000000000e+04
-2.635000000000000000e+04
-2.608700000000000000e+04
-2.395100000000000000e+04
-2.075100000000000000e+04
-1.827700000000000000e+04
-1.738700000000000000e+04
-1.155000000000000000e+04
-8.301000000000000000e+03
-9.823000000000000000e+03
-9.517000000000000000e+03
-9.901000000000000000e+03
-1.070500000000000000e+04
-1.143100000000000000e+04
-1.168700000000000000e+04
-1.527500000000000000e+04
-1.279100000000000000e+04
-8.706000000000000000e+03
-8.969000000000000000e+03
-1.251100000000000000e+04
-1.389200000000000000e+04
-1.510600000000000000e+04
-1.518900000000000000e+04
-1.559100000000000000e+04
-1.455200000000000000e+04
-1.115100000000000000e+04
-4.659000000000000000e+03
-1.437000000000000000e+03
-3.150000000000000000e+02
-2.940000000000000000e+02
-1.131000000000000000e+03
-2.237000000000000000e+03
-3.536000000000000000e+03
-5.329000000000000000e+03
-5.625000000000000000e+03
-6.101000000000000000e+03
-5.948000000000000000e+03
-5.487000000000000000e+03
-4.648000000000000000e+03
-3.662000000000000000e+03
-3.702000000000000000e+03
-5.179000000000000000e+03
-6.749000000000000000e+03
-7.191000000000000000e+03
-6.010000000000000000e+03
-4.387000000000000000e+03
-2.764000000000000000e+03
-1.680000000000000000e+03
-1.299000000000000000e+03
-1.551000000000000000e+03
-1.002000000000000000e+03
-1.384000000000000000e+03
-2.861000000000000000e+03
-4.268000000000000000e+03
-4.799000000000000000e+03
-5.660000000000000000e+03
-6.570000000000000000e+03
-8.376000000000000000e+03
-1.003600000000000000e+04
-1.027100000000000000e+04
-1.050900000000000000e+04
-1.253100000000000000e+04
-1.273200000000000000e+04
-1.117900000000000000e+04
-6.502000000000000000e+03
-1.723000000000000000e+03
1.790000000000000000e+02
3.390000000000000000e+02
9.570000000000000000e+02
1.624000000000000000e+03
2.359000000000000000e+03
1.596000000000000000e+03
-1.549000000000000000e+03
-4.645000000000000000e+03
-6.692000000000000000e+03
-7.787000000000000000e+03
-8.564000000000000000e+03
-9.529000000000000000e+03
-9.778000000000000000e+03
-1.048400000000000000e+04
-1.009800000000000000e+04
-8.820000000000000000e+03
-1.048900000000000000e+04
-1.129100000000000000e+04
-8.806000000000000000e+03
-6.927000000000000000e+03
-5.547000000000000000e+03
-4.344000000000000000e+03
-2.787000000000000000e+03
-1.898000000000000000e+03
-2.981000000000000000e+03
-4.040000000000000000e+03
-3.232000000000000000e+03
-2.610000000000000000e+02
1.429000000000000000e+03
-5.560000000000000000e+02
-1.535000000000000000e+03
-1.932000000000000000e+03
-1.556000000000000000e+03
-1.984000000000000000e+03
-3.376000000000000000e+03
-5.232000000000000000e+03
-5.419000000000000000e+03
-4.234000000000000000e+03
-3.361000000000000000e+03
-3.765000000000000000e+03
-5.668000000000000000e+03
-8.076000000000000000e+03
-1.080200000000000000e+04
-1.110100000000000000e+04
-8.942000000000000000e+03
-8.664000000000000000e+03
-1.021900000000000000e+04
-1.144700000000000000e+04
-1.352200000000000000e+04
-1.611200000000000000e+04
-1.558900000000000000e+04
-1.601400000000000000e+04
-1.454900000000000000e+04
-8.792000000000000000e+03
-9.870000000000000000e+03
-1.771400000000000000e+04
-2.083300000000000000e+04
-1.793100000000000000e+04
-1.300500000000000000e+04
-1.321100000000000000e+04
-1.455600000000000000e+04
-1.182900000000000000e+04
-9.452000000000000000e+03
-5.097000000000000000e+03
-3.667000000000000000e+03
-3.197000000000000000e+03
-5.873000000000000000e+03
-9.665000000000000000e+03
-1.082000000000000000e+04
-1.006600000000000000e+04
-6.155000000000000000e+03
-3.962000000000000000e+03
-2.882000000000000000e+03
-5.647000000000000000e+03
-8.598000000000000000e+03
-9.242000000000000000e+03
-8.507000000000000000e+03
-4.651000000000000000e+03
-8.220000000000000000e+02
-2.920000000000000000e+02
-1.807000000000000000e+03
-3.385000000000000000e+03
-5.142000000000000000e+03
-5.552000000000000000e+03
-6.295000000000000000e+03
-6.792000000000000000e+03
-8.759000000000000000e+03
-9.977000000000000000e+03
-1.087800000000000000e+04
-1.347700000000000000e+04
-1.469600000000000000e+04
-1.116000000000000000e+04
-8.139000000000000000e+03
-4.389000000000000000e+03
3.900000000000000000e+01
3.041000000000000000e+03
1.919000000000000000e+03
-3.089000000000000000e+03
-5.930000000000000000e+03
-7.107000000000000000e+03
-8.743000000000000000e+03
-5.676000000000000000e+03
-1.944000000000000000e+03
-1.446000000000000000e+03
1.720000000000000000e+02
2.446000000000000000e+03
4.094000000000000000e+03
4.701000000000000000e+03
4.002000000000000000e+03
1.801000000000000000e+03
-1.331000000000000000e+03
-8.469000000000000000e+03
-1.206200000000000000e+04
-1.428600000000000000e+04
-1.540600000000000000e+04
-1.646900000000000000e+04
-1.578400000000000000e+04
-1.209300000000000000e+04
-5.916000000000000000e+03
-1.135000000000000000e+03
1.974000000000000000e+03
3.517000000000000000e+03
2.183000000000000000e+03
-2.204000000000000000e+03
-7.240000000000000000e+03
-1.166200000000000000e+04
-1.268500000000000000e+04
-7.796000000000000000e+03
-2.962000000000000000e+03
-1.046000000000000000e+03
-3.886000000000000000e+03
-4.885000000000000000e+03
-2.997000000000000000e+03
-6.547000000000000000e+03
-1.606400000000000000e+04
-1.936100000000000000e+04
-1.866200000000000000e+04
-2.275600000000000000e+04
-2.015400000000000000e+04
-1.009300000000000000e+04
-5.494000000000000000e+03
-2.992000000000000000e+03
-4.247000000000000000e+03
-1.025300000000000000e+04
-1.450600000000000000e+04
-1.096100000000000000e+04
-5.128000000000000000e+03
-4.520000000000000000e+02
5.260000000000000000e+02
-4.680000000000000000e+03
-1.404500000000000000e+04
-1.369300000000000000e+04
-8.550000000000000000e+03
-1.293500000000000000e+04
-1.992400000000000000e+04
-1.711200000000000000e+04
-1.366800000000000000e+04
-1.080300000000000000e+04
-1.274900000000000000e+04
-1.749800000000000000e+04
-2.093700000000000000e+04
-1.960900000000000000e+04
-1.402500000000000000e+04
-8.156000000000000000e+03
-7.379000000000000000e+03
-1.117100000000000000e+04
-9.856000000000000000e+03
-2.007000000000000000e+03
-8.600000000000000000e+01
-4.428000000000000000e+03
-4.816000000000000000e+03
-1.794000000000000000e+03
-1.890000000000000000e+02
-2.487000000000000000e+03
-2.927000000000000000e+03
-6.168000000000000000e+03
-1.062100000000000000e+04
-8.917000000000000000e+03
-1.081900000000000000e+04
-1.996700000000000000e+04
-2.870200000000000000e+04
-2.756800000000000000e+04
-1.911000000000000000e+04
-1.630600000000000000e+04
-1.517300000000000000e+04
-1.704100000000000000e+04
-2.663600000000000000e+04
-3.731200000000000000e+04
-4.063400000000000000e+04
-3.053000000000000000e+04
-2.339100000000000000e+04
-2.464700000000000000e+04
-2.302700000000000000e+04
-2.373400000000000000e+04
-2.906400000000000000e+04
-2.961400000000000000e+04
-3.164100000000000000e+04
-3.105000000000000000e+04
-2.410300000000000000e+04
-1.524900000000000000e+04
-1.223600000000000000e+04
-2.038200000000000000e+04
-2.702700000000000000e+04
-2.676000000000000000e+04
-1.606400000000000000e+04
-7.470000000000000000e+03
-1.065100000000000000e+04
-1.648900000000000000e+04
-2.102500000000000000e+04
-2.066700000000000000e+04
-2.333200000000000000e+04
-2.187700000000000000e+04
-1.775600000000000000e+04
-2.410600000000000000e+04
-3.187200000000000000e+04
-3.131900000000000000e+04
-2.736400000000000000e+04
-2.104000000000000000e+04
-2.163100000000000000e+04
-2.651000000000000000e+04
-2.716200000000000000e+04
-3.361200000000000000e+04
-3.833700000000000000e+04
-4.105800000000000000e+04
-4.472100000000000000e+04
-4.113600000000000000e+04
-3.648900000000000000e+04
-3.453400000000000000e+04
-3.461600000000000000e+04
-4.080300000000000000e+04
-5.256100000000000000e+04
-6.027900000000000000e+04
-5.982600000000000000e+04
-4.810600000000000000e+04
-4.384700000000000000e+04
-4.847200000000000000e+04
-5.810400000000000000e+04
-6.157300000000000000e+04
-5.044700000000000000e+04
-4.150700000000000000e+04
-2.890100000000000000e+04
-2.008400000000000000e+04
-2.556600000000000000e+04
-2.885400000000000000e+04
-2.724100000000000000e+04
-2.705800000000000000e+04
-2.853300000000000000e+04
-3.636700000000000000e+04
-4.568900000000000000e+04
-4.680100000000000000e+04
-4.073500000000000000e+04
-3.331600000000000000e+04
-3.751400000000000000e+04
-4.847200000000000000e+04
-5.404700000000000000e+04
-5.836500000000000000e+04
-5.945700000000000000e+04
-6.369600000000000000e+04
-5.863400000000000000e+04
-4.511400000000000000e+04
-4.161700000000000000e+04
-3.834700000000000000e+04
-3.341300000000000000e+04
-2.656900000000000000e+04
-2.736200000000000000e+04
-3.392300000000000000e+04
-3.456400000000000000e+04
-3.531200000000000000e+04
-3.871900000000000000e+04
-4.062100000000000000e+04
-3.911200000000000000e+04
-3.958900000000000000e+04
-3.638100000000000000e+04
-3.312300000000000000e+04
-3.465400000000000000e+04
-4.170900000000000000e+04
-4.450700000000000000e+04
-4.656000000000000000e+04
-4.927100000000000000e+04
-4.836200000000000000e+04
-4.396900000000000000e+04
-4.314900000000000000e+04
-4.500200000000000000e+04
-4.264900000000000000e+04
-3.972900000000000000e+04
-4.000100000000000000e+04
-4.254800000000000000e+04
-4.741600000000000000e+04
-3.914000000000000000e+04
-2.847600000000000000e+04
-2.656100000000000000e+04
-2.880600000000000000e+04
-3.244900000000000000e+04
-3.562100000000000000e+04
-3.853000000000000000e+04
-4.050200000000000000e+04
-4.176300000000000000e+04
-4.397600000000000000e+04
-4.997800000000000000e+04
-5.547600000000000000e+04
-5.858800000000000000e+04
-5.379100000000000000e+04
-4.707800000000000000e+04
-4.428100000000000000e+04
-4.192100000000000000e+04
-4.331600000000000000e+04
-4.096900000000000000e+04
-3.889800000000000000e+04
-4.302400000000000000e+04
-4.755400000000000000e+04
-4.896200000000000000e+04
-5.234600000000000000e+04
-4.902700000000000000e+04
-4.993900000000000000e+04
-5.288100000000000000e+04
-5.172900000000000000e+04
-5.254400000000000000e+04
-5.304500000000000000e+04
-4.576900000000000000e+04
-4.083500000000000000e+04
-3.955300000000000000e+04
-4.115600000000000000e+04
-4.369300000000000000e+04
-4.373200000000000000e+04
-3.897900000000000000e+04
-3.420400000000000000e+04
-3.647500000000000000e+04
-4.653000000000000000e+04
-5.322600000000000000e+04
-5.596900000000000000e+04
-5.684600000000000000e+04
-5.277700000000000000e+04
-5.155400000000000000e+04
-5.552000000000000000e+04
-5.450100000000000000e+04
-4.794900000000000000e+04
-5.210700000000000000e+04
-6.031300000000000000e+04
-6.134900000000000000e+04
-5.153400000000000000e+04
-4.276100000000000000e+04
-4.285700000000000000e+04
-4.125700000000000000e+04
